# Region        : all region0
# Cells         : 13056
# Volume        : 2.33333000e+00
# Time          	min(p)	min(k)	min(epsilon)	min(nut)
1               	2.73419246e-07	9.29038611e-05	5.57024553e-03	2.11542672e-11
2               	3.39062547e-07	5.83684452e-05	3.13537993e-03	3.33939541e-11
3               	-9.04574420e-05	3.72327107e-05	1.78501180e-03	2.50107825e-11
4               	-3.61807898e-04	2.41355097e-05	1.02898671e-03	1.54797788e-11
5               	-5.71117099e-04	1.59118245e-05	6.01352911e-04	1.06305722e-11
6               	-7.25379984e-04	1.06759270e-05	3.56742173e-04	8.29824436e-12
7               	-8.53521320e-04	7.29339802e-06	2.15096245e-04	6.47614509e-12
8               	-9.71832770e-04	5.07482580e-06	1.31970555e-04	5.61253279e-12
9               	-1.08416979e-03	3.59674555e-06	8.24774350e-05	4.86473165e-12
10              	-1.19078325e-03	2.59612553e-06	5.25489215e-05	4.28858831e-12
11              	-1.29355077e-03	1.90766998e-06	3.41512724e-05	3.98384629e-12
12              	-1.39594422e-03	1.42623715e-06	2.26455390e-05	3.66405803e-12
13              	-1.49900992e-03	1.08410536e-06	1.53207949e-05	3.35034105e-12
14              	-1.60377964e-03	8.37089718e-07	1.05723737e-05	3.16072869e-12
15              	-1.71087909e-03	6.55979793e-07	7.43740245e-06	3.05870833e-12
16              	-1.81987949e-03	5.21204972e-07	5.32977446e-06	2.84147238e-12
17              	-1.93077629e-03	4.19475518e-07	3.88736508e-06	2.67289775e-12
18              	-2.04397376e-03	3.41644642e-07	2.88298165e-06	2.55991297e-12
19              	-2.15990300e-03	2.81332526e-07	2.17184986e-06	2.48991518e-12
20              	-2.27808938e-03	2.34030624e-07	1.66026098e-06	2.38326733e-12
21              	-2.39853901e-03	1.96511862e-07	1.28660972e-06	2.25091830e-12
22              	-2.52165147e-03	1.66437746e-07	1.00977175e-06	2.15148448e-12
23              	-2.64757271e-03	1.42093222e-07	8.01882073e-07	2.07866158e-12
24              	-2.77647252e-03	1.22206497e-07	6.43784846e-07	2.02782861e-12
25              	-2.90857940e-03	1.05825466e-07	5.22126046e-07	1.96127726e-12
26              	-3.04398324e-03	9.22304376e-08	4.27475238e-07	1.85928609e-12
27              	-3.18271392e-03	8.08729448e-08	3.53091782e-07	1.77665652e-12
28              	-3.32461472e-03	7.13324884e-08	2.94099252e-07	1.71025346e-12
29              	-3.46971459e-03	6.32853104e-08	2.46932075e-07	1.65765169e-12
30              	-3.61803330e-03	5.64814150e-08	2.08958138e-07	1.61703870e-12
31              	-3.76957329e-03	5.07272654e-08	1.78217025e-07	1.56417949e-12
32              	-3.92435337e-03	4.58723825e-08	1.53235741e-07	1.48442770e-12
33              	-4.08235890e-03	4.17986530e-08	1.32896915e-07	1.41661209e-12
34              	-4.24356322e-03	3.84115893e-08	1.16343043e-07	1.35907964e-12
35              	-4.40798121e-03	3.56331238e-08	1.02905978e-07	1.31046144e-12
36              	-4.57559927e-03	3.33957535e-08	9.20546098e-08	1.26961504e-12
37              	-4.74639185e-03	3.16379978e-08	8.33561839e-08	1.23558264e-12
38              	-4.92022918e-03	3.03011759e-08	7.64482976e-08	1.18593819e-12
39              	-5.09691131e-03	2.93274824e-08	7.10195062e-08	1.12390577e-12
40              	-5.27628896e-03	2.86592547e-08	6.67968854e-08	1.06962939e-12
41              	-5.45824264e-03	2.82392401e-08	6.35389936e-08	1.02214408e-12
42              	-5.64268143e-03	2.80115980e-08	6.10326696e-08	9.80625949e-13
43              	-5.82949464e-03	2.79233417e-08	5.90921495e-08	9.44369688e-13
44              	-6.01854573e-03	2.79259226e-08	5.75591650e-08	9.12769464e-13
45              	-6.20978238e-03	2.79766902e-08	5.63029990e-08	8.85303327e-13
46              	-6.40298444e-03	2.80400098e-08	5.52198454e-08	8.43654057e-13
47              	-6.59795366e-03	2.80878911e-08	5.42311838e-08	7.96881530e-13
48              	-6.79445132e-03	2.81000602e-08	5.32811786e-08	7.55304869e-13
49              	-6.99228257e-03	2.80634960e-08	5.23333218e-08	7.18317390e-13
50              	-7.19143951e-03	2.79715249e-08	5.13666526e-08	6.85395706e-13
51              	-7.39174936e-03	2.78226195e-08	5.03719194e-08	6.56080411e-13
52              	-7.59286556e-03	2.76190724e-08	4.93480062e-08	6.29970605e-13
53              	-7.79453588e-03	2.73657010e-08	4.82988670e-08	6.06717537e-13
54              	-7.99647716e-03	2.70687101e-08	4.72311004e-08	5.86017584e-13
55              	-8.19858444e-03	2.67347890e-08	4.61521977e-08	5.54576501e-13
56              	-8.40071364e-03	2.63704704e-08	4.50694105e-08	5.21248372e-13
57              	-8.60271332e-03	2.59817383e-08	4.39891300e-08	4.91401044e-13
58              	-8.80443687e-03	2.55738417e-08	4.29166438e-08	4.64647589e-13
59              	-9.00581731e-03	2.51512580e-08	4.18561395e-08	4.40632085e-13
60              	-9.20649577e-03	2.45816068e-08	4.08108410e-08	4.19057035e-13
61              	-9.40631624e-03	2.29332118e-08	3.97831948e-08	3.99655866e-13
62              	-9.60485584e-03	2.12912946e-08	3.87750528e-08	3.82192914e-13
63              	-9.80202014e-03	1.95959817e-08	3.77878227e-08	3.66461891e-13
64              	-9.99869565e-03	1.80619477e-08	3.68225797e-08	3.52282570e-13
65              	-1.01947839e-02	1.66735008e-08	3.58801408e-08	3.31388996e-13
66              	-1.03897880e-02	1.53135482e-08	3.49611121e-08	3.09907732e-13
67              	-1.05832389e-02	1.39278709e-08	3.40659185e-08	2.90279455e-13
68              	-1.07749681e-02	1.26820973e-08	3.31948236e-08	2.72496271e-13
69              	-1.09654991e-02	1.15631202e-08	3.23479463e-08	2.56533647e-13
70              	-1.11542373e-02	1.05582183e-08	3.15252761e-08	2.42163084e-13
71              	-1.13409212e-02	9.65542516e-09	3.07266890e-08	2.29207301e-13
72              	-1.15254434e-02	8.76805506e-09	2.99519637e-08	2.17514740e-13
73              	-1.17080916e-02	7.88416687e-09	2.92007965e-08	2.06948993e-13
74              	-1.18887964e-02	7.09633528e-09	2.84728165e-08	1.97389315e-13
75              	-1.20674236e-02	6.39509181e-09	2.77675980e-08	1.88729901e-13
76              	-1.22437237e-02	5.77180448e-09	2.70846717e-08	1.76973908e-13
77              	-1.24178839e-02	5.21817667e-09	2.64235345e-08	1.64488612e-13
78              	-1.25900096e-02	4.72645840e-09	2.57836574e-08	1.53090838e-13
79              	-1.27602863e-02	4.28952439e-09	2.51644921e-08	1.42675549e-13
80              	-1.29281881e-02	3.89137231e-09	2.45654769e-08	1.33151507e-13
81              	-1.30937073e-02	3.46311433e-09	2.39860417e-08	1.24510356e-13
82              	-1.32569462e-02	3.08542747e-09	2.34256117e-08	1.16767994e-13
83              	-1.34187476e-02	2.75290083e-09	2.28836114e-08	1.09803589e-13
84              	-1.35781785e-02	2.46057459e-09	2.23594677e-08	1.03526354e-13
85              	-1.37344806e-02	2.20412052e-09	2.18526119e-08	9.78617111e-14
86              	-1.38877099e-02	1.97939534e-09	2.05361278e-08	9.27429987e-14
87              	-1.40382115e-02	1.78251648e-09	1.92263593e-08	8.81107759e-14
88              	-1.41864067e-02	1.60996774e-09	1.80270211e-08	8.27801670e-14
89              	-1.43322613e-02	1.45860353e-09	1.69281214e-08	7.63297119e-14
90              	-1.44756272e-02	1.32565753e-09	1.59205744e-08	7.04541525e-14
91              	-1.46172722e-02	1.19111242e-09	1.48613456e-08	6.51074445e-14
92              	-1.47563105e-02	1.05580699e-09	1.37998642e-08	6.02377548e-14
93              	-1.48920189e-02	9.37702224e-10	1.28384572e-08	5.57994351e-14
94              	-1.50246796e-02	8.34781014e-10	1.19668013e-08	5.17523221e-14
95              	-1.51545480e-02	7.45161260e-10	1.11756397e-08	4.80616379e-14
96              	-1.52817367e-02	6.67345705e-10	1.04566866e-08	4.47541401e-14
97              	-1.54063990e-02	5.99932971e-10	9.80258623e-09	4.09806686e-14
98              	-1.55291530e-02	5.41564296e-10	9.10779930e-09	3.61421789e-14
99              	-1.56495152e-02	4.91002778e-10	8.41752601e-09	3.20139223e-14
100             	-1.57678872e-02	4.47155621e-10	7.79769653e-09	2.84784900e-14
101             	-1.58839953e-02	4.09066463e-10	7.24066576e-09	2.54370852e-14
102             	-1.59975181e-02	3.75901238e-10	6.73953858e-09	2.28082597e-14
103             	-1.61083784e-02	3.38161893e-10	6.28811896e-09	2.02121707e-14
104             	-1.62163710e-02	3.00619227e-10	5.88087124e-09	1.74368755e-14
105             	-1.63227199e-02	2.68003150e-10	5.51288282e-09	1.50769369e-14
106             	-1.64270503e-02	2.39713600e-10	5.17319773e-09	1.30704783e-14
107             	-1.65285392e-02	2.15189669e-10	4.77491024e-09	1.13668779e-14
108             	-1.66256391e-02	1.94011892e-10	4.41825832e-09	9.95341558e-15
109             	-1.67193273e-02	1.75816267e-10	4.09835411e-09	8.77708856e-15
110             	-1.68101009e-02	1.60214236e-10	3.81125900e-09	7.78715863e-15
111             	-1.68984682e-02	1.46840301e-10	3.55352763e-09	6.94861438e-15
112             	-1.69849870e-02	1.35368886e-10	3.32203581e-09	6.23467552e-15
113             	-1.70702261e-02	1.25513383e-10	3.11393261e-09	5.62322936e-15
114             	-1.71529821e-02	1.17024405e-10	2.92662497e-09	5.09579276e-15
115             	-1.72328507e-02	1.05639538e-10	2.75776801e-09	4.63769017e-15
116             	-1.73100667e-02	9.44294787e-11	2.58373531e-09	4.22779259e-15
117             	-1.73847557e-02	8.47117007e-11	2.39428970e-09	3.65788536e-15
118             	-1.74565804e-02	7.63028844e-11	2.22518236e-09	3.17503375e-15
119             	-1.75253988e-02	6.90313016e-11	2.07367141e-09	2.76654418e-15
120             	-1.75922954e-02	6.27908715e-11	1.93746620e-09	2.43240189e-15
121             	-1.76574808e-02	5.74802302e-11	1.81481851e-09	2.15733461e-15
122             	-1.77207711e-02	5.29800686e-11	1.70439556e-09	1.92774965e-15
123             	-1.77814386e-02	4.91747678e-11	1.60502042e-09	1.73461531e-15
124             	-1.78381611e-02	4.59600731e-11	1.51559166e-09	1.57111145e-15
125             	-1.78922527e-02	4.32425571e-11	1.43507388e-09	1.43150065e-15
126             	-1.79440106e-02	4.02407385e-11	1.36064347e-09	1.31117775e-15
127             	-1.79937941e-02	3.60758033e-11	1.26459805e-09	1.20646581e-15
128             	-1.80419252e-02	3.24655829e-11	1.17925555e-09	1.11306207e-15
129             	-1.80890935e-02	2.93473747e-11	1.10314899e-09	9.64898040e-16
130             	-1.81344172e-02	2.66574959e-11	1.03495551e-09	8.39917420e-16
131             	-1.81780223e-02	2.43486503e-11	9.73559388e-10	7.36594285e-16
132             	-1.82194717e-02	2.23978454e-11	9.18120288e-10	6.53369170e-16
133             	-1.82590193e-02	2.07645326e-11	8.68101677e-10	5.84869336e-16
134             	-1.82968680e-02	1.94052440e-11	8.23052798e-10	5.27878269e-16
135             	-1.83331753e-02	1.82792706e-11	7.82539178e-10	4.80105661e-16
136             	-1.83683568e-02	1.73496458e-11	7.46135516e-10	4.39685254e-16
137             	-1.84016939e-02	1.62469960e-11	7.03043857e-10	4.05093341e-16
138             	-1.84327800e-02	1.46150432e-11	6.57222006e-10	3.75108686e-16
139             	-1.84617181e-02	1.32039537e-11	6.16616790e-10	3.49619866e-16
140             	-1.84882008e-02	1.19890642e-11	5.80492554e-10	3.07570921e-16
141             	-1.85119625e-02	1.09448323e-11	5.48181003e-10	2.67975663e-16
142             	-1.85338849e-02	1.00552834e-11	5.19137714e-10	2.35623444e-16
143             	-1.85541767e-02	9.31267337e-12	4.92994315e-10	2.09778939e-16
144             	-1.85731959e-02	8.70102889e-12	4.69552538e-10	1.88665696e-16
145             	-1.85907089e-02	8.20282678e-12	4.48653865e-10	1.71231144e-16
146             	-1.86066265e-02	7.80145229e-12	4.30142050e-10	1.56722604e-16
147             	-1.86211587e-02	7.48193309e-12	4.10655069e-10	1.44517776e-16
148             	-1.86348220e-02	6.88684496e-12	3.85221773e-10	1.34107015e-16
149             	-1.86471619e-02	6.22747932e-12	3.62963302e-10	1.25164533e-16
150             	-1.86579385e-02	5.66038783e-12	3.43472285e-10	1.17591278e-16
151             	-1.86678798e-02	5.17450894e-12	3.26373413e-10	1.02323113e-16
152             	-1.86771044e-02	4.75903510e-12	3.11344343e-10	8.95228513e-17
153             	-1.86863625e-02	4.41222570e-12	2.98150845e-10	7.94519487e-17
154             	-1.86949346e-02	4.12907847e-12	2.86695384e-10	7.13709086e-17
155             	-1.87021718e-02	3.90211431e-12	2.76943084e-10	6.47833842e-17
156             	-1.87074453e-02	3.72361657e-12	2.68865784e-10	5.93694211e-17
157             	-1.87098801e-02	3.58629748e-12	2.55105485e-10	5.48805148e-17
158             	-1.87099553e-02	3.41684618e-12	2.41162153e-10	5.11073085e-17
159             	-1.87085283e-02	3.09922313e-12	2.29297695e-10	4.78720997e-17
160             	-1.87061261e-02	2.82527127e-12	2.19282882e-10	4.51693831e-17
161             	-1.87028043e-02	2.59040793e-12	2.10907227e-10	4.15303198e-17
162             	-1.86986323e-02	2.38947041e-12	2.03979831e-10	3.64040000e-17
163             	-1.86935327e-02	2.21979861e-12	1.98356865e-10	3.22559002e-17
164             	-1.86873860e-02	2.08076958e-12	1.93967782e-10	2.89881438e-17
165             	-1.86805596e-02	1.96937740e-12	1.90816015e-10	2.63469864e-17
166             	-1.86731437e-02	1.88202214e-12	1.79959483e-10	2.41879583e-17
167             	-1.86649947e-02	1.81518097e-12	1.70808660e-10	2.24086093e-17
168             	-1.86558967e-02	1.76563695e-12	1.63233633e-10	2.09235726e-17
169             	-1.86455603e-02	1.64324955e-12	1.57083971e-10	1.91231940e-17
170             	-1.86345476e-02	1.50202828e-12	1.52231457e-10	1.66223051e-17
171             	-1.86224859e-02	1.37999472e-12	1.48566786e-10	1.45575000e-17
172             	-1.86091961e-02	1.27494096e-12	1.45989091e-10	1.28311761e-17
173             	-1.85946837e-02	1.18462330e-12	1.44417730e-10	1.13669862e-17
174             	-1.85787407e-02	1.10883514e-12	1.41418570e-10	1.01120779e-17
175             	-1.85616810e-02	1.04708365e-12	1.33640911e-10	9.02893541e-18
176             	-1.85435001e-02	9.97992934e-13	1.27153659e-10	8.09020816e-18
177             	-1.85244279e-02	9.60013377e-13	1.21899832e-10	7.27520768e-18
178             	-1.85048328e-02	9.31673786e-13	1.17805794e-10	6.56759907e-18
179             	-1.84843326e-02	9.11649725e-13	1.14800423e-10	5.95395348e-18
180             	-1.84627745e-02	8.57876031e-13	1.12823245e-10	5.32797833e-18
181             	-1.84402795e-02	7.90295386e-13	1.11830350e-10	4.36907877e-18
182             	-1.84168855e-02	7.31742679e-13	1.11792824e-10	3.59995841e-18
183             	-1.83925836e-02	6.81344990e-13	1.10033406e-10	2.98356336e-18
184             	-1.83674668e-02	6.38144993e-13	1.04532329e-10	2.48980574e-18
185             	-1.83416562e-02	6.01848760e-13	9.99282659e-11	2.09484241e-18
186             	-1.83150583e-02	5.72695562e-13	9.62024750e-11	1.77988679e-18
187             	-1.82879468e-02	5.50275205e-13	9.34201964e-11	1.52840952e-18
188             	-1.82601133e-02	5.34002123e-13	9.15877966e-11	1.32712043e-18
189             	-1.82320558e-02	5.23297962e-13	9.06956680e-11	1.16557225e-18
190             	-1.82039323e-02	5.17642495e-13	9.07357950e-11	1.03525244e-18
191             	-1.81756805e-02	5.01414172e-13	9.17095232e-11	9.27435594e-19
192             	-1.81474192e-02	4.67507883e-13	9.14129614e-11	8.36115032e-19
193             	-1.81185046e-02	4.38313782e-13	8.74084396e-11	7.57520234e-19
194             	-1.80881929e-02	4.13553778e-13	8.42777941e-11	6.89265746e-19
195             	-1.80567685e-02	3.92815336e-13	8.19331535e-11	6.29797789e-19
196             	-1.80247377e-02	3.75860483e-13	8.03308858e-11	5.78032580e-19
197             	-1.79919217e-02	3.63055038e-13	7.94703552e-11	5.15640320e-19
198             	-1.79582805e-02	3.54476921e-13	7.94288558e-11	4.12924961e-19
199             	-1.79239037e-02	3.49993628e-13	8.02799208e-11	3.32964801e-19
200             	-1.78889023e-02	3.49430743e-13	8.20714351e-11	2.70747111e-19
201             	-1.78533892e-02	3.52637306e-13	8.28318246e-11	2.22328967e-19
202             	-1.78174512e-02	3.41014584e-13	7.96330734e-11	1.84627315e-19
203             	-1.77811394e-02	3.23648425e-13	7.73546903e-11	1.55243870e-19
204             	-1.77443421e-02	3.09252921e-13	7.59355570e-11	1.32441966e-19
205             	-1.77070076e-02	2.97706124e-13	7.53119298e-11	1.14719920e-19
206             	-1.76692772e-02	2.88828408e-13	7.54481310e-11	1.00905403e-19
207             	-1.76310775e-02	2.82672999e-13	7.63485023e-11	9.01100845e-20
208             	-1.75925152e-02	2.79681787e-13	7.80574329e-11	8.15681695e-20
209             	-1.75543072e-02	2.80035360e-13	8.07040864e-11	7.45098545e-20
210             	-1.75159204e-02	2.83777953e-13	8.10659670e-11	6.84987647e-20
211             	-1.74770898e-02	2.90934337e-13	7.84238469e-11	6.32833963e-20
212             	-1.74376258e-02	2.81233830e-13	7.67462240e-11	5.87299865e-20
213             	-1.73968177e-02	2.71016395e-13	7.59977731e-11	5.47672387e-20
214             	-1.73545648e-02	2.63168590e-13	7.61438033e-11	4.50086586e-20
215             	-1.73114448e-02	2.57636227e-13	7.71482946e-11	3.52994384e-20
216             	-1.72678238e-02	2.54340790e-13	7.90064680e-11	2.79726521e-20
217             	-1.72235760e-02	2.53493301e-13	8.17527075e-11	2.24430078e-20
218             	-1.71787649e-02	2.55586316e-13	8.51665958e-11	1.82662936e-20
219             	-1.71333992e-02	2.60818479e-13	8.21877710e-11	1.51076941e-20
220             	-1.70873661e-02	2.66932045e-13	8.02356661e-11	1.27162642e-20
221             	-1.70406111e-02	2.57821780e-13	7.92897262e-11	1.09128997e-20
222             	-1.69929306e-02	2.50785127e-13	7.93355083e-11	9.55521011e-21
223             	-1.69442947e-02	2.45914215e-13	8.03470532e-11	8.53368219e-21
224             	-1.68948098e-02	2.43161204e-13	8.23035809e-11	7.76789453e-21
225             	-1.68443955e-02	2.42483412e-13	8.52178240e-11	7.17834465e-21
226             	-1.67933220e-02	2.44314598e-13	8.71584329e-11	6.69624243e-21
227             	-1.67418694e-02	2.35710047e-13	8.42520830e-11	6.28608042e-21
228             	-1.66904655e-02	1.95615525e-13	8.23888540e-11	5.93077249e-21
229             	-1.66393598e-02	1.62970389e-13	8.15600471e-11	5.62319609e-21
230             	-1.65883328e-02	1.36533150e-13	8.17552017e-11	4.34402528e-21
231             	-1.65371210e-02	1.15232198e-13	8.29479991e-11	3.33156313e-21
232             	-1.64855026e-02	9.81541899e-14	8.51250496e-11	2.59226828e-21
233             	-1.64330575e-02	8.45297438e-14	8.66781540e-11	2.05156870e-21
234             	-1.63795952e-02	7.37181835e-14	8.34297226e-11	1.65511401e-21
235             	-1.63253598e-02	6.51920120e-14	8.12146037e-11	1.36358909e-21
236             	-1.62703647e-02	5.85216253e-14	8.00182383e-11	1.14870072e-21
237             	-1.62147199e-02	5.33773729e-14	7.98190954e-11	9.90771650e-22
238             	-1.61584567e-02	4.94838129e-14	8.05860810e-11	8.75091812e-22
239             	-1.61016068e-02	4.50140213e-14	8.23040032e-11	7.90673256e-22
240             	-1.60441083e-02	3.67547315e-14	7.85478554e-11	7.29558944e-22
241             	-1.59861941e-02	2.99378095e-14	7.57252750e-11	6.83078769e-22
242             	-1.59280073e-02	2.43759049e-14	7.38710689e-11	6.45191250e-22
243             	-1.58696992e-02	1.98794520e-14	7.29430928e-11	6.13004342e-22
244             	-1.58112405e-02	1.62721805e-14	7.29022094e-11	5.85304746e-22
245             	-1.57526153e-02	1.33974474e-14	7.07607221e-11	4.73783419e-22
246             	-1.56937633e-02	1.11198933e-14	6.72663788e-11	3.53690043e-22
247             	-1.56348345e-02	9.32492830e-15	6.46743533e-11	2.68440368e-22
248             	-1.55756127e-02	7.91719722e-15	6.29235082e-11	2.07758747e-22
249             	-1.55160830e-02	6.81855744e-15	6.19632704e-11	1.64384759e-22
250             	-1.54563166e-02	5.96597327e-15	5.81696487e-11	1.33236581e-22
251             	-1.53963939e-02	5.30915677e-15	5.48900319e-11	1.10764096e-22
252             	-1.53359703e-02	4.80841560e-15	5.23795597e-11	9.44968468e-23
253             	-1.52752141e-02	4.43469060e-15	5.04863612e-11	8.27920626e-23
254             	-1.52142568e-02	4.16321862e-15	4.65986760e-11	7.44042904e-23
