0 	1.4130714e-05 	1.7483282e-07 	80.799909 	0.01500327 	0.99697225 	1.9860155e-05 	0
0.0021021021 	1.3923056e-05 	1.746633e-07 	79.705625 	0.015088245 	0.99688412 	2.0450161e-05 	0
0.0042042042 	1.3767649e-05 	1.7452465e-07 	78.883061 	0.015189979 	0.99677746 	2.1226625e-05 	0
0.0063063063 	1.3655752e-05 	1.7441169e-07 	78.286765 	0.015305668 	0.9966554 	2.2199112e-05 	0
0.0084084084 	1.3543855e-05 	1.7429873e-07 	77.690468 	0.015421358 	0.99653333 	2.3171599e-05 	0
0.010510511 	1.3431958e-05 	1.7418577e-07 	77.094172 	0.015537047 	0.99641127 	2.4144087e-05 	0
0.012612613 	1.3320061e-05 	1.7407281e-07 	76.497876 	0.015652737 	0.9962892 	2.5116574e-05 	0
0.014714715 	1.3208163e-05 	1.7395985e-07 	75.90158 	0.015768427 	0.99616713 	2.6089061e-05 	0
0.016816817 	1.3096266e-05 	1.738469e-07 	75.305284 	0.015884116 	0.99604507 	2.7061549e-05 	0
0.018918919 	1.2984369e-05 	1.7373394e-07 	74.708988 	0.015999806 	0.995923 	2.8034036e-05 	0
0.021021021 	1.2872472e-05 	1.7362098e-07 	74.112692 	0.016115495 	0.99580093 	2.9006523e-05 	0
0.023123123 	1.2717825e-05 	1.7346486e-07 	73.288582 	0.016275467 	0.9956319 	3.0366339e-05 	0
0.025225225 	1.256178e-05 	1.7330734e-07 	72.457024 	0.016436887 	0.99546133 	3.1738821e-05 	0
0.027327327 	1.2405735e-05 	1.7314982e-07 	71.625465 	0.016598307 	0.99529077 	3.3111302e-05 	0
0.029429429 	1.224969e-05 	1.7299229e-07 	70.793906 	0.016759727 	0.9951202 	3.4483783e-05 	0
0.031531532 	1.2093645e-05 	1.7283477e-07 	69.962347 	0.016921147 	0.99494963 	3.5856264e-05 	0
0.033633634 	1.19376e-05 	1.7267724e-07 	69.130789 	0.017082567 	0.99477906 	3.7228745e-05 	0
0.035735736 	1.1833678e-05 	1.7256115e-07 	68.573831 	0.017287133 	0.99457241 	3.9850801e-05 	0
0.037837838 	1.1741235e-05 	1.7245418e-07 	68.077347 	0.0175012 	0.9943578 	4.2801874e-05 	0
0.03993994 	1.1648793e-05 	1.7234721e-07 	67.580864 	0.017715267 	0.9941432 	4.5752946e-05 	0
0.042042042 	1.155635e-05 	1.7224025e-07 	67.084381 	0.017929334 	0.9939286 	4.8704018e-05 	0
0.044144144 	1.1463907e-05 	1.7213328e-07 	66.587898 	0.018143401 	0.99371399 	5.1655091e-05 	0
0.046246246 	1.1371464e-05 	1.7202631e-07 	66.091414 	0.018357468 	0.99349939 	5.4606163e-05 	0
0.048348348 	1.1254544e-05 	1.7189102e-07 	65.463473 	0.018628426 	0.99322808 	5.842261e-05 	0
0.05045045 	1.1125607e-05 	1.7174183e-07 	64.770989 	0.018927315 	0.99292892 	6.2663936e-05 	0
0.052552553 	1.099667e-05 	1.7159264e-07 	64.078505 	0.019226205 	0.99262977 	6.6905262e-05 	0
0.054654655 	1.0867734e-05 	1.7144345e-07 	63.386021 	0.019525095 	0.99233061 	7.1146589e-05 	0
0.056756757 	1.0751345e-05 	1.7130652e-07 	62.760272 	0.019849289 	0.99198939 	7.5691719e-05 	0
0.058858859 	1.0670159e-05 	1.7120398e-07 	62.321738 	0.020244462 	0.99153023 	8.136505e-05 	0
0.060960961 	1.0588972e-05 	1.7110144e-07 	61.883204 	0.020639635 	0.99107107 	8.703838e-05 	0
0.063063063 	1.0507786e-05 	1.709989e-07 	61.44467 	0.021034808 	0.99061191 	9.2711711e-05 	0
0.065165165 	1.04266e-05 	1.7089636e-07 	61.006137 	0.021429981 	0.99015275 	9.8385042e-05 	0
0.067267267 	1.0317999e-05 	1.7075918e-07 	60.419528 	0.021959649 	0.989534 	0.00010595359 	0
0.069369369 	1.0204744e-05 	1.7061611e-07 	59.807783 	0.022512147 	0.98888817 	0.00011384387 	0
0.071471471 	1.0091489e-05 	1.7047304e-07 	59.196038 	0.023064646 	0.98824234 	0.00012173415 	0
0.073573574 	1.0005681e-05 	1.7036198e-07 	58.730996 	0.023787784 	0.98756769 	0.00014590923 	0
0.075675676 	9.9319181e-06 	1.7026496e-07 	58.330341 	0.0245858 	0.98688034 	0.00017752975 	0
0.077777778 	9.8581554e-06 	1.7016794e-07 	57.929687 	0.025383816 	0.986193 	0.00020915028 	0
0.07987988 	9.768833e-06 	1.7005076e-07 	57.444416 	0.026354305 	0.98536491 	0.00025074579 	0
0.081981982 	9.6659908e-06 	1.6991608e-07 	56.88562 	0.027474657 	0.98441454 	0.00030100863 	0
0.084084084 	9.5771588e-06 	1.6984456e-07 	56.388011 	0.028722567 	0.98303839 	0.00036167702 	0
0.086186186 	9.526194e-06 	1.6994321e-07 	56.055958 	0.030315503 	0.98051089 	0.00045246823 	0
0.088288288 	9.4751791e-06 	1.7004275e-07 	55.723322 	0.031911512 	0.97797811 	0.00054332412 	0
0.09039039 	9.4132971e-06 	1.7033594e-07 	55.263998 	0.034175104 	0.9743011 	0.00064822289 	0
0.092492492 	1.3346691e-05 	2.1583079e-07 	57.397872 	0.037241702 	0.9712843 	0.0012393366 	0
0.094594595 	2.3762483e-05 	3.3469079e-07 	63.739536 	0.041613167 	0.96934274 	0.0026320064 	0
0.096696697 	4.2364487e-05 	5.3915518e-07 	75.181468 	0.047763713 	0.96630418 	0.0069466405 	0
0.098798799 	0.0023134238 	6.7422467e-07 	1569.1047 	0.05107992 	0.83272562 	0.0082655156 	0
0.1009009 	0.0084928333 	1.1727307e-06 	5630.0768 	0.053390889 	0.77555747 	0.0095913056 	0
0.103003 	0.010198296 	9.729064e-07 	6139.0506 	0.048125342 	0.46204301 	0.012139861 	0
0.10510511 	0.013280219 	1.6476565e-06 	7265.4746 	0.04074691 	0.6337604 	0.019087352 	0
0.10720721 	0.011036123 	1.2322097e-06 	6856.4054 	0.031518435 	0.48088692 	0.018367361 	0
0.10930931 	0.0087849768 	9.1835945e-07 	6466.6051 	0.023638372 	0.4001187 	0.016167855 	0
0.11141141 	0.0076517855 	1.0135268e-06 	7534.9782 	0.016482169 	0.42956282 	0.01452815 	0
0.11351351 	0.0050052444 	5.4746665e-07 	6437.2467 	0.010062846 	0.31315806 	0.010379721 	0
0.11561562 	0.0039869588 	5.1114788e-07 	6938.0666 	0.004847649 	0.30611903 	0.0070121609 	0
0.11771772 	0.0029533978 	3.7373996e-07 	6922.0805 	0.0016598033 	0.26851277 	0.004469932 	0
0.11981982 	0.0022904728 	3.0346316e-07 	6466.5151 	0.00012785806 	0.24916574 	0.0045104861 	0
0.12192192 	0.0019615693 	2.6107403e-07 	7302.9421 	-0.00069219156 	0.23150087 	0.0026560207 	0
0.12402402 	0.0015715784 	2.1916226e-07 	6101.3197 	-0.00015909448 	0.2215749 	0.0033303239 	0
0.12612613 	0.0015081982 	2.0176979e-07 	7391.0781 	0.00027352677 	0.20796707 	-0.00014699302 	0
0.12822823 	0.0012721585 	1.7734484e-07 	6275.1429 	0.0011813709 	0.20330929 	0.001494105 	0
0.13033033 	0.0012545701 	1.6828992e-07 	7194.2604 	0.0018815071 	0.19370538 	-9.4845796e-05 	0
0.13243243 	0.001100442 	1.5021044e-07 	6407.065 	0.0024445343 	0.18991912 	0.00087178358 	0
0.13453453 	0.001096711 	1.4634111e-07 	7092.8414 	0.0028699284 	0.18314063 	0.00013405636 	0
0.13663664 	0.00097728354 	1.3041727e-07 	6450.9534 	0.0031222723 	0.17947593 	0.00069079182 	0
0.13873874 	0.00098439705 	1.3048728e-07 	7082.7971 	0.0033072959 	0.17420282 	0.00023104199 	0
0.14084084 	0.00087356812 	1.1422284e-07 	6409.2719 	0.00341528 	0.17067599 	0.00063158092 	0
0.14294294 	0.00089883561 	1.188475e-07 	7159.7094 	0.0034911096 	0.16619021 	0.00020512776 	0
0.14504505 	0.0007804935 	1.0004234e-07 	6285.319 	0.0035431141 	0.16302806 	0.00061605697 	0
0.14714715 	0.00083360953 	1.1060872e-07 	7319.2292 	0.0035723793 	0.15899032 	0.00012995139 	0
0.14924925 	0.00069587592 	8.7238904e-08 	6082.8913 	0.0035960245 	0.15634063 	0.00062568823 	0
0.15135135 	0.00077328833 	1.0292599e-07 	7411.1355 	0.0035985592 	0.15260725 	9.4804858e-05 	0
0.15345345 	0.00065138077 	8.164361e-08 	6223.8257 	0.0036086409 	0.15028645 	0.00052215927 	0
0.15555556 	0.00069158717 	9.0701658e-08 	7099.0628 	0.003603362 	0.14711906 	0.0003130829 	0
0.15765766 	0.00062924666 	8.0206513e-08 	6571.6083 	0.0036084333 	0.14477903 	0.00042079008 	0
0.15975976 	0.00061575791 	7.9011688e-08 	6717.0731 	0.003609477 	0.14223468 	0.00037487215 	0
0.16186186 	0.00061535334 	8.01836e-08 	6988.831 	0.0036099838 	0.13976263 	0.00028181203 	0
0.16396396 	0.00054537664 	6.7959486e-08 	6269.11 	0.003617952 	0.13787948 	0.00040026779 	0
0.16606607 	0.00060760276 	8.1089287e-08 	7471.4698 	0.0036141891 	0.13517084 	7.2745053e-05 	0
0.16816817 	0.00051110646 	6.3566903e-08 	6243.236 	0.0036181599 	0.13375719 	0.00035123932 	0
0.17027027 	0.00053913495 	6.997831e-08 	6950.4033 	0.003612447 	0.13149945 	0.00017874106 	0
0.17237237 	0.00051732493 	6.67495e-08 	6821.0191 	0.0036081367 	0.12972223 	0.00019027968 	0
0.17447447 	0.00047381068 	5.9276141e-08 	6349.4468 	0.0036038587 	0.12817686 	0.00028766146 	0
0.17657658 	0.00052557552 	7.0099536e-08 	7455.7107 	0.0035929065 	0.12596111 	4.9699848e-05 	0
0.17867868 	0.00044673778 	5.5781142e-08 	6294.1475 	0.0035906266 	0.12488123 	0.00027019619 	0
0.18078078 	0.00046345781 	5.9732962e-08 	6821.2873 	0.0035820268 	0.12307815 	0.00016753097 	0
0.18288288 	0.00046355683 	6.0503153e-08 	7014.2849 	0.003574173 	0.12148691 	0.00012014011 	0
0.18498498 	0.0004027125 	4.9588401e-08 	6084.7508 	0.0035698841 	0.12045866 	0.00027896973 	0
0.18708709 	0.00044954012 	5.9127535e-08 	7180.2058 	0.0035588338 	0.11857201 	8.8934237e-05 	0
0.18918919 	0.00041533496 	5.3284675e-08 	6685.5324 	0.0035511787 	0.11745746 	0.00015983293 	0
0.19129129 	0.00038938827 	4.894493e-08 	6366.8645 	0.0035425103 	0.11630233 	0.00020861279 	0
0.19339339 	0.00043266595 	5.7644047e-08 	7431.7457 	0.0035297582 	0.11457015 	4.2481563e-05 	0
0.1954955 	0.00037829954 	4.7989684e-08 	6463.8159 	0.0035216455 	0.1137942 	0.00017708986 	0
0.1975976 	0.0003733657 	4.7535469e-08 	6546.3247 	0.0035107382 	0.11258693 	0.00016470023 	0
0.1996997 	0.00040422478 	5.3761671e-08 	7380.4977 	0.0034978435 	0.11108597 	4.5367371e-05 	0
0.2018018 	0.00035033211 	4.4239429e-08 	6343.6218 	0.003489741 	0.11043564 	0.00017693354 	0
0.2039039 	0.00035518622 	4.552537e-08 	6628.4228 	0.0034785067 	0.10924969 	0.00013962848 	0
0.20600601 	0.00037894866 	5.030427e-08 	7327.116 	0.003466213 	0.10791446 	4.7747125e-05 	0
0.20810811 	0.00032975302 	4.1714201e-08 	6319.5845 	0.0034575205 	0.10733984 	0.00016425229 	0
0.21021021 	0.00033537231 	4.3062694e-08 	6618.3182 	0.0034460389 	0.10624362 	0.0001287078 	0
0.21231231 	0.00036015422 	4.7897518e-08 	7365.4147 	0.0034334539 	0.10498204 	3.9859382e-05 	0
0.21441441 	0.00031516359 	4.0141616e-08 	6386.5023 	0.0034234543 	0.10447135 	0.00014332301 	0
0.21651652 	0.00031434578 	4.0271777e-08 	6521.0253 	0.0034113291 	0.10352421 	0.00012847453 	0
0.21861862 	0.0003458655 	4.6175079e-08 	7470.6593 	0.0033976478 	0.10225756 	2.7013459e-05 	0
0.22072072 	0.00030539743 	3.9302989e-08 	6539.3321 	0.0033868637 	0.10179785 	0.00011696274 	0
0.22282282 	0.00029246272 	3.7262114e-08 	6341.4006 	0.003374819 	0.10105214 	0.00013564898 	0
0.22492492 	0.00032160785 	4.2611882e-08 	7263.9765 	0.003360854 	0.099875152 	4.5360884e-05 	0
0.22702703 	0.00029950303 	3.9021561e-08 	6773.1936 	0.0033491879 	0.09929263 	8.6832e-05 	0
0.22912913 	0.00027005675 	3.4131277e-08 	6084.1364 	0.0033378621 	0.098797767 	0.00014770183 	0
0.23123123 	0.0002970255 	3.8977241e-08 	6980.3456 	0.0033240816 	0.097702865 	6.7169007e-05 	0
0.23333333 	0.00029671731 	3.9153281e-08 	7083.3811 	0.0033113548 	0.096936661 	5.4541355e-05 	0
0.23543544 	0.00026201677 	3.3435237e-08 	6186.036 	0.0032999564 	0.09657581 	0.00012750982 	0
0.23753754 	0.00027239981 	3.5350367e-08 	6624.2888 	0.0032866974 	0.095718197 	9.112498e-05 	0
0.23963964 	0.00029640877 	3.9576347e-08 	7465.3617 	0.0032728676 	0.094715454 	2.1681643e-05 	0
0.24174174 	0.00026452244 	3.4418525e-08 	6593.8032 	0.0032608466 	0.094394029 	8.682693e-05 	0
0.24384384 	0.00024795024 	3.1798804e-08 	6200.1643 	0.0032482306 	0.093898123 	0.00011602716 	0
0.24594595 	0.00027108464 	3.5759897e-08 	7045.6801 	0.0032340719 	0.09294982 	5.2028694e-05 	0
0.24804805 	0.00026870306 	3.5538089e-08 	7068.3164 	0.0032208292 	0.09232713 	4.7451845e-05 	0
0.25015015 	0.00023938089 	3.0895361e-08 	6221.862 	0.0032085533 	0.09204079 	0.00010559742 	0
0.25225225 	0.00024529937 	3.1952524e-08 	6533.3326 	0.0031949858 	0.091339153 	8.3651965e-05 	0
0.25435435 	0.00026673008 	3.5518667e-08 	7354.4989 	0.0031808498 	0.09045471 	2.6452001e-05 	0
0.25645646 	0.00024714497 	3.2535696e-08 	6783.3698 	0.0031682792 	0.090108071 	6.1725284e-05 	0
0.25855856 	0.00022018605 	2.8372977e-08 	5961.7901 	0.00315599 	0.089854071 	0.00011361488 	0
0.26066066 	0.00024004211 	3.1569701e-08 	6759.2578 	0.0031420793 	0.089029098 	6.2465894e-05 	0
0.26276276 	0.00025558483 	3.4100437e-08 	7402.7654 	0.0031283101 	0.088265417 	2.0742276e-05 	0
0.26486486 	0.00023077284 	3.0382106e-08 	6604.5182 	0.0031158634 	0.088041361 	6.7124737e-05 	0
0.26696697 	0.00021428724 	2.792924e-08 	6109.3168 	0.0031031463 	0.087712269 	9.5768688e-05 	0
0.26906907 	0.00023268505 	3.0778031e-08 	6883.724 	0.003089296 	0.086943129 	5.0097253e-05 	0
0.27117117 	0.00024158069 	3.2211285e-08 	7301.0917 	0.0030757277 	0.086308897 	2.4505855e-05 	0
0.27327327 	0.00021875474 	2.8912204e-08 	6525.9746 	0.0030631 	0.086111592 	6.5919574e-05 	0
0.27537538 	0.0002066186 	2.7172964e-08 	6160.336 	0.003050149 	0.085774833 	8.529836e-05 	0
0.27747748 	0.00022365869 	2.9691077e-08 	6912.3073 	0.0030363155 	0.085057456 	4.4536115e-05 	0
0.27957958 	0.00023135536 	3.0878966e-08 	7294.7827 	0.0030227928 	0.084476817 	2.2865903e-05 	0
0.28168168 	0.00021036244 	2.7976739e-08 	6542.1649 	0.0030102237 	0.084304069 	5.9793689e-05 	0
0.28378378 	0.00019756898 	2.621272e-08 	6120.2301 	0.0029974238 	0.084020554 	8.0370277e-05 	0
0.28588589 	0.00021334197 	2.8414159e-08 	6850.377 	0.0029838192 	0.08335113 	4.3980187e-05 	0
0.28798799 	0.00022426154 	2.9962804e-08 	7378.4605 	0.0029703877 	0.082756447 	1.7184267e-05 	0
0.29009009 	0.00020496811 	2.743925e-08 	6647.7247 	0.0029580331 	0.082606897 	5.0070095e-05 	0
0.29219219 	0.00018749142 	2.5152677e-08 	5994.1781 	0.0029456308 	0.082431888 	7.9453207e-05 	0
0.29429429 	0.00020208187 	2.7049066e-08 	6703.0991 	0.0029323886 	0.081807511 	4.7009935e-05 	0
0.2963964 	0.00021667232 	2.8945455e-08 	7412.02 	0.0029191463 	0.081183133 	1.4566663e-05 	0
0.2984985 	0.00020202829 	2.717201e-08 	6837.4969 	0.0029069112 	0.081010842 	3.7949424e-05 	0
0.3006006 	0.0001843141 	2.5012078e-08 	6128.0399 	0.0028947817 	0.080883117 	6.7188699e-05 	0
0.3027027 	0.00019018948 	2.5695497e-08 	6475.4412 	0.0028820819 	0.080411916 	5.2508172e-05 	0
0.3048048 	0.00020367344 	2.729601e-08 	7163.721 	0.0028691982 	0.079829931 	2.3661769e-05 	0
0.30690691 	0.00020106142 	2.7051579e-08 	7106.5265 	0.0028569263 	0.079507526 	2.4472752e-05 	0
0.30900901 	0.00018481825 	2.5243271e-08 	6417.7597 	0.0028451724 	0.079400359 	5.0389722e-05 	0
0.31111111 	0.00017794442 	2.4453792e-08 	6172.1762 	0.0028332101 	0.07915107 	5.9485578e-05 	0
0.31321321 	0.00019038911 	2.5765021e-08 	6840.3857 	0.0028208182 	0.07860874 	3.3898222e-05 	0
0.31531532 	0.00020163494 	2.6954961e-08 	7450.0546 	0.0028084824 	0.078088722 	1.0443308e-05 	0
0.31741742 	0.00018676842 	2.5489821e-08 	6781.4032 	0.0027973662 	0.078001463 	3.3317289e-05 	0
0.31951952 	0.0001719019 	2.4024681e-08 	6112.7518 	0.00278625 	0.077914204 	5.6191271e-05 	0
0.32162162 	0.00017707451 	2.4455334e-08 	6446.5834 	0.0027747221 	0.077509036 	4.4441442e-05 	0
0.32372372 	0.00018854112 	2.5481427e-08 	7095.28 	0.002763065 	0.077004018 	2.1816782e-05 	0
0.32582583 	0.00018978817 	2.5629152e-08 	7214.4173 	0.0027519664 	0.076679728 	1.6628107e-05 	0
0.32792793 	0.00017621667 	2.4502329e-08 	6565.3206 	0.0027416779 	0.076612144 	3.6709442e-05 	0
0.33003003 	0.00016397415 	2.3478524e-08 	5986.698 	0.002731364 	0.076522411 	5.4587571e-05 	0
0.33213213 	0.00017451843 	2.4221051e-08 	6616.4257 	0.0027206163 	0.076052933 	3.468952e-05 	0
0.33423423 	0.00018506271 	2.4963578e-08 	7246.1534 	0.0027098687 	0.075583455 	1.4791469e-05 	0
0.33633634 	0.00018118459 	2.4740812e-08 	7082.3467 	0.0027000168 	0.075381423 	1.8467984e-05 	0
0.33843844 	0.00016883633 	2.3950935e-08 	6452.2579 	0.0026906909 	0.075333235 	3.5981653e-05 	0
0.34054054 	0.00016099426 	2.3416326e-08 	6076.2241 	0.0026812855 	0.075205756 	4.6355655e-05 	0
0.34264264 	0.00017066435 	2.3873748e-08 	6687.5129 	0.0026715704 	0.074770128 	2.898307e-05 	0
0.34474474 	0.00018033445 	2.433117e-08 	7298.8017 	0.0026618553 	0.0743345 	1.1610485e-05 	0
0.34684685 	0.00017529902 	2.4148289e-08 	7048.0434 	0.0026532805 	0.07418743 	1.7163786e-05 	0
0.34894895 	0.00016411184 	2.3697745e-08 	6436.4305 	0.0026451828 	0.074158416 	3.230071e-05 	0
0.35105105 	0.00015703307 	2.3373965e-08 	6072.0612 	0.0026370165 	0.074052531 	4.124558e-05 	0
0.35315315 	0.0001658688 	2.3541227e-08 	6665.4273 	0.0026285845 	0.07364888 	2.6204607e-05 	0
0.35525526 	0.00017470453 	2.3708489e-08 	7258.7934 	0.0026201524 	0.07324523 	1.1163635e-05 	0
0.35735736 	0.00017164813 	2.3704414e-08 	7105.9373 	0.0026129691 	0.073091111 	1.3712494e-05 	0
0.35945946 	0.00016157151 	2.3599889e-08 	6512.2817 	0.0026065232 	0.073081582 	2.6637373e-05 	0
0.36156156 	0.00015243886 	2.3493963e-08 	5979.5843 	0.0026000618 	0.073053097 	3.8216958e-05 	0
0.36366366 	0.00016047402 	2.3362544e-08 	6555.5306 	0.0025933173 	0.072679847 	2.5329763e-05 	0
0.36576577 	0.00016850919 	2.3231125e-08 	7131.4769 	0.0025865729 	0.072306597 	1.2442568e-05 	0
0.36786787 	0.00016978519 	2.3251122e-08 	7250.6798 	0.002580744 	0.072086978 	8.9852224e-06 	0
0.36996997 	0.00016077756 	2.3503474e-08 	6674.477 	0.0025763086 	0.07209723 	1.9862711e-05 	0
0.37207207 	0.00015176992 	2.3755825e-08 	6098.2742 	0.0025718732 	0.072107483 	3.07402e-05 	0
0.37417417 	0.00015481227 	2.3493368e-08 	6362.9709 	0.0025672314 	0.07185483 	2.5506922e-05 	0
0.37627628 	0.00016207219 	2.3050726e-08 	6921.9868 	0.0025625172 	0.071510159 	1.4634793e-05 	0
0.37837838 	0.00016926853 	2.2611477e-08 	7476.5305 	0.0025578151 	0.071168245 	3.8496402e-06 	0
0.38048048 	0.00016130692 	2.3235727e-08 	6917.895 	0.0025560728 	0.071199041 	1.3391176e-05 	0
0.38258258 	0.00015333741 	2.3860674e-08 	6358.6536 	0.0025543322 	0.07122987 	2.2943063e-05 	0
0.38468468 	0.00014922004 	2.4114121e-08 	6092.6887 	0.0025525145 	0.07116787 	2.8601951e-05 	0
0.38678679 	0.00015572252 	2.3343386e-08 	6635.2508 	0.0025504847 	0.070849954 	2.3528327e-05 	0
0.38888889 	0.000162225 	2.2572651e-08 	7177.8129 	0.0025484549 	0.070532038 	1.8454703e-05 	0
0.39099099 	0.00016274466 	2.2596589e-08 	7237.6222 	0.0025479719 	0.070380744 	1.695352e-05 	0
0.39309309 	0.00015580372 	2.361536e-08 	6694.8642 	0.0025494196 	0.070434646 	1.9888901e-05 	0
0.3951952 	0.00014886278 	2.463413e-08 	6152.1062 	0.0025508673 	0.070488548 	2.2824282e-05 	0
0.3972973 	0.00014984834 	2.4321486e-08 	6275.9983 	0.0025520963 	0.070328898 	2.0203683e-05 	0
0.3993994 	0.00015562178 	2.320462e-08 	6802.5706 	0.0025531932 	0.070040256 	1.4227076e-05 	0
0.4015015 	0.00016139522 	2.2087754e-08 	7329.1428 	0.0025542901 	0.069751614 	8.2504694e-06 	0
0.4036036 	0.00015878054 	2.279309e-08 	7102.2055 	0.0025584266 	0.069723585 	9.0447939e-06 	0
0.40570571 	0.00015283309 	2.4225728e-08 	6575.4664 	0.0025637721 	0.069797801 	1.2516189e-05 	0
0.40780781 	0.00014688563 	2.5658366e-08 	6048.7272 	0.0025691177 	0.069872017 	1.5987584e-05 	0
0.40990991 	0.00014980365 	2.4732803e-08 	6359.7999 	0.002574133 	0.06967274 	1.2161144e-05 	0
0.41201201 	0.00015483758 	2.3244409e-08 	6870.8326 	0.0025790694 	0.069408188 	6.5929333e-06 	0
0.41411411 	0.00015987151 	2.1756015e-08 	7381.8652 	0.0025840059 	0.069143637 	1.0247227e-06 	0
0.41621622 	0.00015681737 	2.298771e-08 	7064.9936 	0.0025921023 	0.069174497 	3.1946213e-06 	0
0.41831832 	0.00015186938 	2.4860257e-08 	6553.8211 	0.0026009401 	0.069273672 	7.1707934e-06 	0
0.42042042 	0.00014692138 	2.6732804e-08 	6042.6486 	0.0026097779 	0.069372846 	1.1146965e-05 	0
0.42252252 	0.00014950161 	2.5555216e-08 	6349.7719 	0.0026182794 	0.069198246 	8.7163807e-06 	0
0.42462462 	0.00015381887 	2.3673858e-08 	6845.7041 	0.0026267034 	0.068960477 	4.8075383e-06 	0
0.42672673 	0.00015813613 	2.1792499e-08 	7341.6363 	0.0026351273 	0.068722708 	8.986958e-07 	0
0.42882883 	0.00015645842 	2.2955991e-08 	7120.3308 	0.0026460457 	0.068745121 	1.4753639e-06 	0
0.43093093 	0.00015248943 	2.5289118e-08 	6624.285 	0.0026579193 	0.068866371 	3.7586919e-06 	0
0.43303303 	0.00014852043 	2.7622246e-08 	6128.2392 	0.0026697929 	0.068987621 	6.04202e-06 	0
0.43513514 	0.00014934831 	2.702207e-08 	6251.3682 	0.0026813919 	0.068898273 	5.334891e-06 	0
0.43723724 	0.00015295069 	2.4725278e-08 	6732.6265 	0.0026928322 	0.068687114 	2.8980889e-06 	0
0.43933934 	0.00015655307 	2.2428487e-08 	7213.8848 	0.0027042725 	0.068475955 	4.6128685e-07 	0
0.44144144 	0.00015718105 	2.2423469e-08 	7262.7867 	0.0027172522 	0.06842325 	-4.5472266e-07 	0
0.44354354 	0.0001541698 	2.5235269e-08 	6781.4401 	0.0027321194 	0.068564047 	4.7667901e-07 	0
0.44564565 	0.00015115856 	2.8047069e-08 	6300.0935 	0.0027469867 	0.068704845 	1.4080807e-06 	0
0.44774775 	0.00014970895 	2.9390986e-08 	6069.8231 	0.0027617288 	0.068759144 	1.7972165e-06 	0
0.44984985 	0.00015259619 	2.6658417e-08 	6536.8221 	0.0027761233 	0.068573227 	6.8041446e-07 	0
0.45195195 	0.00015548343 	2.3925847e-08 	7003.8211 	0.0027905179 	0.06838731 	-4.3638758e-07 	0
0.45405405 	0.00015837067 	2.1193278e-08 	7470.8201 	0.0028049125 	0.068201393 	-1.5531896e-06 	0
0.45615616 	0.00015637838 	2.4389567e-08 	7020.0863 	0.0028222709 	0.068353403 	-1.7803462e-06 	0
0.45825826 	0.0001543034 	2.7694537e-08 	6553.0232 	0.0028396819 	0.068511269 	-1.9990764e-06 	0
0.46036036 	0.00015222843 	3.0999508e-08 	6085.9602 	0.0028570929 	0.068669136 	-2.2178066e-06 	0
0.46246246 	0.00015312868 	2.9759651e-08 	6263.3034 	0.0028741502 	0.068603079 	-2.2892926e-06 	0
0.46456456 	0.0001553023 	2.6574653e-08 	6716.4462 	0.0028910562 	0.068441184 	-2.2977595e-06 	0
0.46666667 	0.00015747591 	2.3389655e-08 	7169.589 	0.0029079622 	0.06827929 	-2.3062265e-06 	0
0.46876877 	0.00015858755 	2.2419873e-08 	7335.2337 	0.0029256501 	0.068223223 	-2.6642592e-06 	0
0.47087087 	0.00015742679 	2.6229268e-08 	6882.0517 	0.002945021 	0.068395123 	-3.7948724e-06 	0
0.47297297 	0.00015626602 	3.0038662e-08 	6428.8698 	0.0029643919 	0.068567022 	-4.9254857e-06 	0
0.47507508 	0.00015510525 	3.3848057e-08 	5975.6879 	0.0029837627 	0.068738922 	-6.0560989e-06 	0
0.47717718 	0.00015639405 	3.068838e-08 	6356.5626 	0.0030026407 	0.068620265 	-5.2510095e-06 	0
0.47927928 	0.00015785555 	2.7037374e-08 	6796.2395 	0.003021484 	0.068481123 	-4.3094505e-06 	0
0.48138138 	0.00015931704 	2.3386369e-08 	7235.9164 	0.0030403272 	0.068341982 	-3.3678915e-06 	0
0.48348348 	0.00015999555 	2.3293969e-08 	7282.3962 	0.0030599386 	0.068346291 	-3.6730511e-06 	0
0.48558559 	0.00015971582 	2.7610206e-08 	6842.7009 	0.0030804995 	0.06852853 	-5.5316013e-06 	0
0.48768769 	0.00015943608 	3.1926442e-08 	6403.0056 	0.0031010604 	0.068710768 	-7.3901514e-06 	0
0.48978979 	0.00015915635 	3.6242679e-08 	5963.3104 	0.0031216212 	0.068893006 	-9.2487015e-06 	0
0.49189189 	0.00015986903 	3.2456124e-08 	6355.3617 	0.0031416687 	0.068787013 	-7.6948174e-06 	0
0.49399399 	0.00016062293 	2.8333065e-08 	6781.9551 	0.0031616948 	0.068669049 	-5.9992163e-06 	0
0.4960961 	0.00016137682 	2.4210005e-08 	7208.5485 	0.0031817209 	0.068551085 	-4.3036153e-06 	0
0.4981982 	0.00016205092 	2.3352555e-08 	7322.8832 	0.0032020267 	0.068544555 	-4.0850315e-06 	0
0.5003003 	0.00016259913 	2.8163254e-08 	6896.2861 	0.0032228169 	0.068732199 	-6.4357884e-06 	0
0.5024024 	0.00016314734 	3.2973954e-08 	6469.6889 	0.0032436071 	0.068919844 	-8.7865453e-06 	0
0.5045045 	0.00016369555 	3.7784654e-08 	6043.0918 	0.0032643973 	0.069107489 	-1.1137302e-05 	0
0.50660661 	0.00016386566 	3.5340652e-08 	6265.2241 	0.0032847852 	0.069073213 	-9.9388615e-06 	0
0.50870871 	0.00016392402 	3.0752273e-08 	6679.1107 	0.0033050543 	0.06897334 	-7.6913335e-06 	0
0.51081081 	0.00016398238 	2.6163895e-08 	7092.9972 	0.0033253234 	0.068873468 	-5.4438055e-06 	0
0.51291291 	0.00016412069 	2.2235449e-08 	7451.1793 	0.0033456213 	0.068792475 	-3.5246296e-06 	0
0.51501502 	0.00016543427 	2.7515895e-08 	7037.3003 	0.0033663176 	0.068981262 	-6.1950225e-06 	0
0.51711712 	0.00016674785 	3.279634e-08 	6623.4212 	0.0033870138 	0.069170049 	-8.8654154e-06 	0
0.51921922 	0.00016806143 	3.8076785e-08 	6209.5421 	0.0034077101 	0.069358836 	-1.1535808e-05 	0
0.52132132 	0.00016867647 	3.9615617e-08 	6091.449 	0.0034282228 	0.069448395 	-1.2307815e-05 	0
0.52342342 	0.00016806432 	3.4581128e-08 	6492.9972 	0.0034484129 	0.06936363 	-9.7447077e-06 	0
0.52552553 	0.00016745216 	2.954664e-08 	6894.5454 	0.003468603 	0.069278864 	-7.1816008e-06 	0
0.52762763 	0.00016684 	2.4512151e-08 	7296.0936 	0.0034887931 	0.069194098 	-4.6184938e-06 	0
0.52972973 	0.0001676491 	2.5323255e-08 	7260.4709 	0.0035087454 	0.069256507 	-4.9801956e-06 	0
0.53183183 	0.00016965591 	3.1034835e-08 	6858.9382 	0.0035284986 	0.069443287 	-7.7928545e-06 	0
0.53393393 	0.00017166271 	3.6746415e-08 	6457.4054 	0.0035482518 	0.069630067 	-1.0605513e-05 	0
0.53603604 	0.00017366952 	4.2457995e-08 	6055.8726 	0.003568005 	0.069816847 	-1.3418172e-05 	0
0.53813814 	0.00017332148 	4.0068945e-08 	6228.678 	0.0035874143 	0.069816737 	-1.2227937e-05 	0
0.54024024 	0.00017208467 	3.4622579e-08 	6618.2483 	0.0036066938 	0.069746091 	-9.5269419e-06 	0
0.54234234 	0.00017084787 	2.9176214e-08 	7007.8186 	0.0036259733 	0.069675445 	-6.8259468e-06 	0
0.54444444 	0.00016961107 	2.3729848e-08 	7397.3889 	0.0036452528 	0.069604799 	-4.1249518e-06 	0
0.54654655 	0.00017139802 	2.7390704e-08 	7171.2071 	0.0036623808 	0.069730754 	-5.7004872e-06 	0
0.54864865 	0.00017399247 	3.3472994e-08 	6781.657 	0.0036789379 	0.069909767 	-8.4107289e-06 	0
0.55075075 	0.00017658691 	3.9555283e-08 	6392.1068 	0.0036954951 	0.070088779 	-1.1120971e-05 	0
0.55285285 	0.00017918136 	4.5637573e-08 	6002.5566 	0.0037120523 	0.070267791 	-1.3831212e-05 	0
0.55495495 	0.00017801701 	4.1560042e-08 	6268.9359 	0.0037282837 	0.070243428 	-1.1913746e-05 	0
0.55705706 	0.00017621333 	3.5754451e-08 	6646.8808 	0.0037444598 	0.070184474 	-9.2091627e-06 	0
0.55915916 	0.00017440966 	2.994886e-08 	7024.8257 	0.0037606359 	0.07012552 	-6.5045796e-06 	0
0.56126126 	0.00017260598 	2.4143269e-08 	7402.7706 	0.0037768119 	0.070066566 	-3.7999965e-06 	0
0.56336336 	0.00017467135 	2.8052359e-08 	7177.4994 	0.0037896226 	0.07018494 	-5.1838655e-06 	0
0.56546547 	0.00017772049 	3.4424564e-08 	6799.5755 	0.0038015817 	0.070349075 	-7.5999448e-06 	0
0.56756757 	0.00018076962 	4.0796768e-08 	6421.6517 	0.0038135408 	0.070513211 	-1.0016024e-05 	0
0.56966967 	0.00018381876 	4.7168973e-08 	6043.7278 	0.0038254999 	0.070677347 	-1.2432104e-05 	0
0.57177177 	0.00018290038 	4.4297744e-08 	6217.8789 	0.0038372701 	0.070681228 	-1.1227716e-05 	0
0.57387387 	0.00018059849 	3.8203246e-08 	6584.5436 	0.0038489745 	0.070629227 	-8.7608388e-06 	0
0.57597598 	0.00017829661 	3.2108748e-08 	6951.2082 	0.0038606788 	0.070577227 	-6.2939616e-06 	0
0.57807808 	0.00017599472 	2.601425e-08 	7317.8728 	0.0038723831 	0.070525226 	-3.8270845e-06 	0
0.58018018 	0.00017686651 	2.7012802e-08 	7273.7158 	0.0038812585 	0.070582192 	-3.8151741e-06 	0
0.58228228 	0.00018023527 	3.3585086e-08 	6907.0691 	0.0038879132 	0.07072583 	-5.7234652e-06 	0
0.58438438 	0.00018360402 	4.0157369e-08 	6540.4224 	0.003894568 	0.070869468 	-7.6317563e-06 	0
0.58648649 	0.00018697278 	4.6729653e-08 	6173.7757 	0.0039012227 	0.071013106 	-9.5400474e-06 	0
0.58858859 	0.00018803319 	4.8422014e-08 	6080.9114 	0.0039078341 	0.071083257 	-9.9902747e-06 	0
0.59069069 	0.00018531144 	4.2118721e-08 	6436.6341 	0.0039143743 	0.071033 	-8.051494e-06 	0
0.59279279 	0.00018258969 	3.5815429e-08 	6792.3568 	0.0039209146 	0.070982744 	-6.1127133e-06 	0
0.59489489 	0.00017986793 	2.9512136e-08 	7148.0795 	0.0039274549 	0.070932487 	-4.1739326e-06 	0
0.596997 	0.00017757979 	2.4106708e-08 	7454.4805 	0.0039336835 	0.070893585 	-2.4707477e-06 	0
0.5990991 	0.00018115056 	3.0793135e-08 	7098.7695 	0.0039357294 	0.071014384 	-3.8751727e-06 	0
0.6012012 	0.00018472133 	3.7479563e-08 	6743.0585 	0.0039377753 	0.071135183 	-5.2795978e-06 	0
0.6033033 	0.00018829211 	4.416599e-08 	6387.3474 	0.0039398212 	0.071255982 	-6.6840229e-06 	0
0.60540541 	0.00019186288 	5.0852418e-08 	6031.6364 	0.0039418671 	0.071376781 	-8.0884479e-06 	0
0.60750751 	0.00019039419 	4.7572332e-08 	6208.3041 	0.0039439151 	0.071365219 	-7.8500269e-06 	0
0.60960961 	0.00018733102 	4.113885e-08 	6553.4159 	0.0039459638 	0.071311778 	-7.091811e-06 	0
0.61171171 	0.00018426784 	3.4705369e-08 	6898.5276 	0.0039480125 	0.071258338 	-6.3335951e-06 	0
0.61381381 	0.00018120467 	2.8271888e-08 	7243.6394 	0.0039500612 	0.071204897 	-5.5753791e-06 	0
0.61591592 	0.00018028471 	2.6016064e-08 	7369.5612 	0.0039507992 	0.071199796 	-5.1098117e-06 	0
0.61801802 	0.00018397726 	3.274456e-08 	7024.453 	0.0039487211 	0.071299652 	-5.2589982e-06 	0
0.62012012 	0.00018766982 	3.9473055e-08 	6679.3449 	0.003946643 	0.071399508 	-5.4081848e-06 	0
0.62222222 	0.00019136237 	4.6201551e-08 	6334.2367 	0.0039445649 	0.071499365 	-5.5573714e-06 	0
0.62432432 	0.00019505492 	5.2930047e-08 	5989.1285 	0.0039424868 	0.071599221 	-5.706558e-06 	0
0.62642643 	0.00019260738 	4.8083396e-08 	6239.289 	0.0039404995 	0.071560727 	-4.8382303e-06 	0
0.62852853 	0.00018928657 	4.1590445e-08 	6574.1128 	0.003938525 	0.071502557 	-3.8251845e-06 	0
0.63063063 	0.00018596575 	3.5097495e-08 	6908.9366 	0.0039365506 	0.071444386 	-2.8121388e-06 	0
0.63273273 	0.00018264493 	2.8604545e-08 	7243.7604 	0.0039345762 	0.071386216 	-1.799093e-06 	0
0.63483483 	0.00018142298 	2.6031221e-08 	7379.7454 	0.0039316201 	0.071369203 	-1.1911927e-06 	0
0.63693694 	0.00018517677 	3.2744398e-08 	7044.9168 	0.0039263397 	0.071450228 	-1.5252292e-06 	0
0.63903904 	0.00018893056 	3.9457575e-08 	6710.0881 	0.0039210594 	0.071531254 	-1.8592657e-06 	0
0.64114114 	0.00019268434 	4.6170753e-08 	6375.2595 	0.003915779 	0.071612279 	-2.1933022e-06 	0
0.64324324 	0.00019643813 	5.288393e-08 	6040.4308 	0.0039104986 	0.071693304 	-2.5273386e-06 	0
0.64534535 	0.00019497368 	5.0108359e-08 	6179.498 	0.0039053458 	0.071670534 	-2.3041567e-06 	0
0.64744745 	0.00019146351 	4.3612895e-08 	6504.3477 	0.0039002429 	0.071607073 	-1.8625274e-06 	0
0.64954955 	0.00018795334 	3.711743e-08 	6829.1973 	0.0038951401 	0.071543611 	-1.420898e-06 	0
0.65165165 	0.00018444317 	3.0621966e-08 	7154.0469 	0.0038900372 	0.07148015 	-9.792686e-07 	0
0.65375375 	0.00018095779 	2.4171881e-08 	7476.6271 	0.0038849267 	0.071417132 	-5.4072451e-07 	0
0.65585586 	0.00018470195 	3.0769718e-08 	7154.5839 	0.0038776271 	0.071481802 	-5.0225309e-07 	0
0.65795796 	0.00018847855 	3.7425285e-08 	6829.7226 	0.0038703181 	0.071547038 	-4.6344502e-07 	0
0.66006006 	0.00019225514 	4.4080853e-08 	6504.8614 	0.0038630091 	0.071612274 	-4.2463696e-07 	0
0.66216216 	0.00019603173 	5.073642e-08 	6180.0002 	0.0038557 	0.07167751 	-3.858289e-07 	0
0.66426426 	0.0001977311 	5.3721996e-08 	6034.31 	0.0038484528 	0.071705243 	-3.4710552e-07 	0
0.66636637 	0.00019408735 	4.7267521e-08 	6349.4883 	0.0038413646 	0.071636511 	-3.0859998e-07 	0
0.66846847 	0.00019044361 	4.0813046e-08 	6664.6667 	0.0038342765 	0.071567778 	-2.7009444e-07 	0
0.67057057 	0.00018679987 	3.4358572e-08 	6979.8451 	0.0038271883 	0.071499046 	-2.315889e-07 	0
0.67267267 	0.00018315613 	2.7904097e-08 	7295.0234 	0.0038201001 	0.071430313 	-1.9308335e-07 	0
0.67477477 	0.00018259428 	2.6861404e-08 	7348.1346 	0.0038124326 	0.071412285 	-3.7108436e-08 	0
0.67687688 	0.0001863667 	3.3426546e-08 	7032.9393 	0.003803951 	0.071465207 	2.9107531e-07 	0
0.67897898 	0.00019013912 	3.9991688e-08 	6717.7441 	0.0037954693 	0.07151813 	6.1925906e-07 	0
0.68108108 	0.00019391153 	4.655683e-08 	6402.5488 	0.0037869877 	0.071571052 	9.4744281e-07 	0
0.68318318 	0.00019768395 	5.3121972e-08 	6087.3535 	0.0037785061 	0.071623975 	1.2756266e-06 	0
0.68528529 	0.000197319 	5.2548199e-08 	6114.6551 	0.0037701585 	0.071607416 	1.267433e-06 	0
0.68738739 	0.0001935898 	4.6169485e-08 	6420.4549 	0.0037619197 	0.071534359 	9.8571745e-07 	0
0.68948949 	0.0001898606 	3.979077e-08 	6726.2547 	0.003753681 	0.071461302 	7.0400186e-07 	0
0.69159159 	0.0001861314 	3.3412056e-08 	7032.0544 	0.0037454422 	0.071388246 	4.2228626e-07 	0
0.69369369 	0.0001824022 	2.7033341e-08 	7337.8542 	0.0037372035 	0.071315189 	1.4057067e-07 	0
0.6957958 	0.00018269436 	2.7554054e-08 	7314.6721 	0.0037285183 	0.071305224 	3.0035381e-07 	0
0.6978979 	0.00018644333 	3.4003441e-08 	7008.8503 	0.0037194497 	0.071349011 	8.4348638e-07 	0
0.7 	0.00019019231 	4.0452827e-08 	6703.0285 	0.003710381 	0.071392797 	1.3866189e-06 	0
0.7021021 	0.00019394128 	4.6902213e-08 	6397.2067 	0.0037013124 	0.071436584 	1.9297515e-06 	0
0.7042042 	0.00019769025 	5.3351599e-08 	6091.3849 	0.0036922438 	0.071480371 	2.4728841e-06 	0
0.70630631 	0.0001974965 	5.3130263e-08 	6101.4323 	0.0036833068 	0.071461338 	2.4667179e-06 	0
0.70840841 	0.00019372463 	4.6855108e-08 	6398.1375 	0.0036744893 	0.071385295 	1.9620518e-06 	0
0.71051051 	0.00018995277 	4.0579953e-08 	6694.8427 	0.0036656719 	0.071309252 	1.4573858e-06 	0
0.71261261 	0.00018618091 	3.4304798e-08 	6991.5478 	0.0036568544 	0.071233208 	9.5271968e-07 	0
0.71471471 	0.00018240905 	2.8029643e-08 	7288.253 	0.003648037 	0.071157165 	4.480536e-07 	0
0.71681682 	0.00018130506 	2.62438e-08 	7373.3595 	0.0036390734 	0.071121837 	3.6416114e-07 	0
0.71891892 	0.00018501777 	3.2560176e-08 	7076.6282 	0.0036298463 	0.071159048 	1.0437764e-06 	0
0.72102102 	0.00018873047 	3.8876552e-08 	6779.8969 	0.0036206193 	0.071196258 	1.7233917e-06 	0
0.72312312 	0.00019244318 	4.5192929e-08 	6483.1655 	0.0036113922 	0.071233468 	2.4030069e-06 	0
0.72522523 	0.00019615588 	5.1509305e-08 	6186.4342 	0.0036021651 	0.071270679 	3.0826222e-06 	0
0.72732733 	0.000198453 	5.547051e-08 	6000.1311 	0.0035929852 	0.071286168 	3.5121371e-06 	0
0.72942943 	0.00019467145 	4.9318398e-08 	6288.0164 	0.0035840082 	0.071208382 	2.8676989e-06 	0
0.73153153 	0.0001908899 	4.3166287e-08 	6575.9016 	0.0035750311 	0.071130596 	2.2232608e-06 	0
0.73363363 	0.00018710834 	3.7014176e-08 	6863.7869 	0.003566054 	0.071052811 	1.5788226e-06 	0
0.73573574 	0.00018332679 	3.0862065e-08 	7151.6721 	0.0035570769 	0.070975025 	9.343844e-07 	0
0.73783784 	0.00017954524 	2.4709954e-08 	7439.5574 	0.0035480999 	0.07089724 	2.8994622e-07 	0
0.73993994 	0.00018218801 	2.9186846e-08 	7230.8441 	0.0035390556 	0.070915119 	8.4831692e-07 	0
0.74204204 	0.00018585622 	3.5359176e-08 	6942.9299 	0.0035300006 	0.070947792 	1.5996139e-06 	0
0.74414414 	0.00018952444 	4.1531506e-08 	6655.0158 	0.0035209456 	0.070980466 	2.3509108e-06 	0
0.74624625 	0.00019319265 	4.7703836e-08 	6367.1017 	0.0035118906 	0.071013139 	3.1022078e-06 	0
0.74834835 	0.00019686086 	5.3876166e-08 	6079.1876 	0.0035028356 	0.071045813 	3.8535047e-06 	0
0.75045045 	0.00019654408 	5.3515353e-08 	6095.3236 	0.0034939101 	0.07101896 	3.8147709e-06 	0
0.75255255 	0.00019277777 	4.7499261e-08 	6374.6542 	0.0034850967 	0.070940579 	3.0921635e-06 	0
0.75465465 	0.00018901147 	4.1483169e-08 	6653.9849 	0.0034762832 	0.070862199 	2.3695561e-06 	0
0.75675676 	0.00018524516 	3.5467077e-08 	6933.3155 	0.0034674698 	0.070783818 	1.6469487e-06 	0
0.75885886 	0.00018147885 	2.9450985e-08 	7212.6462 	0.0034586563 	0.070705438 	9.2434126e-07 	0
0.76096096 	0.00017805108 	2.398771e-08 	7466.3151 	0.0034498448 	0.070632462 	2.7022247e-07 	0
0.76306306 	0.00018166895 	3.0009296e-08 	7186.9541 	0.0034410748 	0.070662079 	1.0500359e-06 	0
0.76516517 	0.00018528682 	3.6030883e-08 	6907.593 	0.0034323047 	0.070691697 	1.8298493e-06 	0
0.76726727 	0.00018890469 	4.2052469e-08 	6628.232 	0.0034235347 	0.070721315 	2.6096628e-06 	0
0.76936937 	0.00019252256 	4.8074056e-08 	6348.871 	0.0034147647 	0.070750932 	3.3894762e-06 	0
0.77147147 	0.00019614043 	5.4095642e-08 	6069.51 	0.0034059946 	0.07078055 	4.1692896e-06 	0
0.77357357 	0.00019567254 	5.3506225e-08 	6096.0865 	0.0033973533 	0.070750335 	4.0970566e-06 	0
0.77567568 	0.00019193996 	4.7634363e-08 	6367.1188 	0.0033888148 	0.070672311 	3.3440056e-06 	0
0.77777778 	0.00018820738 	4.1762501e-08 	6638.1512 	0.0033802763 	0.070594288 	2.5909546e-06 	0
0.77987988 	0.00018447481 	3.5890638e-08 	6909.1836 	0.0033717379 	0.070516265 	1.8379037e-06 	0
0.78198198 	0.00018074223 	3.0018776e-08 	7180.2159 	0.0033631994 	0.070438241 	1.0848527e-06 	0
0.78408408 	0.00017700966 	2.4146914e-08 	7451.2483 	0.0033546609 	0.070360218 	3.3180176e-07 	0
0.78618619 	0.0001798212 	2.8806116e-08 	7235.9647 	0.003346233 	0.070377374 	9.5155551e-07 	0
0.78828829 	0.00018338397 	3.4673219e-08 	6964.9015 	0.0033378178 	0.070404919 	1.7290224e-06 	0
0.79039039 	0.00018694674 	4.0540322e-08 	6693.8382 	0.0033294026 	0.070432465 	2.5064894e-06 	0
0.79249249 	0.0001905095 	4.6407425e-08 	6422.775 	0.0033209874 	0.07046001 	3.2839563e-06 	0
0.79459459 	0.00019407227 	5.2274527e-08 	6151.7117 	0.0033125721 	0.070487555 	4.0614232e-06 	0
0.7966967 	0.00019590737 	5.5379101e-08 	6007.9413 	0.0033042095 	0.070490183 	4.474078e-06 	0
0.7987988 	0.00019222187 	4.9656264e-08 	6270.9231 	0.0032960151 	0.070413188 	3.7210088e-06 	0
0.8009009 	0.00018853638 	4.3933427e-08 	6533.905 	0.0032878207 	0.070336193 	2.9679397e-06 	0
0.803003 	0.00018485088 	3.821059e-08 	6796.8868 	0.0032796263 	0.070259198 	2.2148706e-06 	0
0.80510511 	0.00018116539 	3.2487753e-08 	7059.8687 	0.0032714319 	0.070182204 	1.4618014e-06 	0
0.80720721 	0.00017747989 	2.6764916e-08 	7322.8506 	0.0032632374 	0.070105209 	7.0873231e-07 	0
0.80930931 	0.00017671104 	2.5681491e-08 	7372.4067 	0.0032551105 	0.07007056 	5.6775636e-07 	0
0.81141141 	0.00018021491 	3.1392473e-08 	7109.3941 	0.0032470824 	0.070096716 	1.3232664e-06 	0
0.81351351 	0.00018371877 	3.7103456e-08 	6846.3816 	0.0032390543 	0.070122872 	2.0787765e-06 	0
0.81561562 	0.00018722264 	4.2814438e-08 	6583.369 	0.0032310262 	0.070149027 	2.8342866e-06 	0
0.81771772 	0.00019072651 	4.8525421e-08 	6320.3564 	0.0032229981 	0.070175183 	3.5897967e-06 	0
0.81981982 	0.00019423038 	5.4236404e-08 	6057.3439 	0.00321497 	0.070201339 	4.3453068e-06 	0
0.82192192 	0.00019364618 	5.3480787e-08 	6091.3327 	0.0032070622 	0.070169237 	4.2473505e-06 	0
0.82402402 	0.00019001753 	4.7909377e-08 	6346.5038 	0.003199244 	0.070093751 	3.5138023e-06 	0
0.82612613 	0.00018638888 	4.2337968e-08 	6601.675 	0.0031914258 	0.070018265 	2.7802541e-06 	0
0.82822823 	0.00018276023 	3.6766558e-08 	6856.8461 	0.0031836077 	0.069942779 	2.0467059e-06 	0
0.83033033 	0.00017913158 	3.1195148e-08 	7112.0172 	0.0031757895 	0.069867292 	1.3131576e-06 	0
0.83243243 	0.00017550293 	2.5623738e-08 	7367.1884 	0.0031679713 	0.069791806 	5.7960944e-07 	0
0.83453453 	0.00017584301 	2.6298261e-08 	7335.8529 	0.0031602489 	0.069773365 	6.6316295e-07 	0
0.83663664 	0.00017928489 	3.1852924e-08 	7080.6517 	0.0031526014 	0.069798604 	1.3849596e-06 	0
0.83873874 	0.00018272677 	3.7407586e-08 	6825.4505 	0.0031449539 	0.069823844 	2.1067563e-06 	0
0.84084084 	0.00018616864 	4.2962248e-08 	6570.2493 	0.0031373064 	0.069849083 	2.828553e-06 	0
0.84294294 	0.00018961052 	4.8516911e-08 	6315.0481 	0.0031296589 	0.069874322 	3.5503497e-06 	0
0.84504505 	0.0001930524 	5.4071573e-08 	6059.8469 	0.0031220114 	0.069899561 	4.2721464e-06 	0
0.84714715 	0.00019264371 	5.3595231e-08 	6080.9702 	0.0031144736 	0.069870471 	4.2113874e-06 	0
0.84924925 	0.00018907918 	4.8176014e-08 	6328.5628 	0.0031070258 	0.069796854 	3.5092633e-06 	0
0.85135135 	0.00018551464 	4.2756796e-08 	6576.1555 	0.003099578 	0.069723236 	2.8071393e-06 	0
0.85345345 	0.00018195011 	3.7337579e-08 	6823.7481 	0.0030921302 	0.069649619 	2.1050152e-06 	0
0.85555556 	0.00017838558 	3.1918362e-08 	7071.3408 	0.0030846824 	0.069576002 	1.4028912e-06 	0
0.85765766 	0.00017482105 	2.6499145e-08 	7318.9334 	0.0030772346 	0.069502384 	7.0076711e-07 	0
0.85975976 	0.00017370709 	2.4899902e-08 	7391.6704 	0.0030698309 	0.069463942 	4.8786594e-07 	0
0.86186186 	0.00017708399 	3.0298919e-08 	7144.0487 	0.0030625079 	0.069488517 	1.1707229e-06 	0
0.86396396 	0.00018046089 	3.5697937e-08 	6896.427 	0.003055185 	0.069513093 	1.8535799e-06 	0
0.86606607 	0.0001838378 	4.1096954e-08 	6648.8053 	0.003047862 	0.069537668 	2.5364369e-06 	0
0.86816817 	0.0001872147 	4.6495971e-08 	6401.1835 	0.0030405391 	0.069562243 	3.2192939e-06 	0
0.87027027 	0.0001905916 	5.1894989e-08 	6153.5618 	0.0030332161 	0.069586818 	3.9021509e-06 	0
0.87237237 	0.0001928923 	5.5623601e-08 	5982.3413 	0.0030259232 	0.069596339 	4.3741144e-06 	0
0.87447447 	0.00018939707 	5.0356227e-08 	6222.5804 	0.0030187917 	0.069524781 	3.7103082e-06 	0
0.87657658 	0.00018590185 	4.5088854e-08 	6462.8196 	0.0030116602 	0.069453224 	3.046502e-06 	0
0.87867868 	0.00018240662 	3.982148e-08 	6703.0587 	0.0030045287 	0.069381667 	2.3826959e-06 	0
0.88078078 	0.00017891139 	3.4554106e-08 	6943.2979 	0.0029973973 	0.06931011 	1.7188897e-06 	0
0.88288288 	0.00017541616 	2.9286733e-08 	7183.537 	0.0029902658 	0.069238552 	1.0550836e-06 	0
0.88498498 	0.00017192094 	2.4019359e-08 	7423.7761 	0.0029831343 	0.069166995 	3.9127744e-07 	0
0.88708709 	0.00017366318 	2.6843823e-08 	7294.1475 	0.0029760965 	0.069169543 	7.319349e-07 	0
0.88918919 	0.00017697255 	3.2088551e-08 	7053.8804 	0.0029690867 	0.069193604 	1.3727396e-06 	0
0.89129129 	0.00018028192 	3.7333279e-08 	6813.6134 	0.002962077 	0.069217665 	2.0135442e-06 	0
0.89339339 	0.00018359129 	4.2578007e-08 	6573.3463 	0.0029550672 	0.069241725 	2.6543489e-06 	0
0.8954955 	0.00018690066 	4.7822735e-08 	6333.0792 	0.0029480574 	0.069265786 	3.2951535e-06 	0
0.8975976 	0.00019021003 	5.3067463e-08 	6092.8122 	0.0029410476 	0.069289847 	3.9359582e-06 	0
0.8996997 	0.00019094196 	5.4344924e-08 	6033.7935 	0.0029341082 	0.069278117 	4.0927171e-06 	0
0.9018018 	0.00018751978 	4.9228247e-08 	6266.8973 	0.0029272821 	0.069208702 	3.4693278e-06 	0
0.9039039 	0.0001840976 	4.411157e-08 	6500.001 	0.002920456 	0.069139288 	2.8459386e-06 	0
0.90600601 	0.00018067542 	3.8994894e-08 	6733.1048 	0.00291363 	0.069069873 	2.2225493e-06 	0
0.90810811 	0.00017725324 	3.3878217e-08 	6966.2086 	0.0029068039 	0.069000458 	1.5991601e-06 	0
0.91021021 	0.00017383106 	2.876154e-08 	7199.3123 	0.0028999778 	0.068931044 	9.7577083e-07 	0
0.91231231 	0.00017040888 	2.3644863e-08 	7432.4161 	0.0028931518 	0.068861629 	3.5238158e-07 	0
0.91441441 	0.00017231493 	2.6693723e-08 	7292.6207 	0.0028864181 	0.068867186 	7.0607285e-07 	0
0.91651652 	0.00017555499 	3.1786114e-08 	7059.4902 	0.0028797076 	0.068890885 	1.3039741e-06 	0
0.91861862 	0.00017879505 	3.6878504e-08 	6826.3598 	0.0028729971 	0.068914583 	1.9018754e-06 	0
0.92072072 	0.00018203511 	4.1970895e-08 	6593.2294 	0.0028662865 	0.068938281 	2.4997767e-06 	0
0.92282282 	0.00018527518 	4.7063286e-08 	6360.099 	0.002859576 	0.068961979 	3.097678e-06 	0
0.92492492 	0.00018851524 	5.2155676e-08 	6126.9685 	0.0028528655 	0.068985677 	3.6955793e-06 	0
0.92702703 	0.00019032783 	5.5067701e-08 	5993.3862 	0.0028461932 	0.068989679 	4.0376885e-06 	0
0.92912913 	0.00018698164 	5.009999e-08 	6219.5662 	0.0028396591 	0.068922499 	3.4553775e-06 	0
0.93123123 	0.00018363544 	4.5132279e-08 	6445.7461 	0.002833125 	0.06885532 	2.8730666e-06 	0
0.93333333 	0.00018028925 	4.0164568e-08 	6671.926 	0.0028265909 	0.06878814 	2.2907556e-06 	0
0.93543544 	0.00017694305 	3.5196856e-08 	6898.1059 	0.0028200567 	0.068720961 	1.7084447e-06 	0
0.93753754 	0.00017359685 	3.0229145e-08 	7124.2858 	0.0028135226 	0.068653782 	1.1261337e-06 	0
0.93963964 	0.00017025066 	2.5261434e-08 	7350.4657 	0.0028069885 	0.068586602 	5.438228e-07 	0
0.94174174 	0.00016971486 	2.4569205e-08 	7381.483 	0.0028004773 	0.068558976 	4.5334996e-07 	0
0.94384384 	0.00017288378 	2.9511478e-08 	7155.2778 	0.0027939963 	0.068582337 	1.0104563e-06 	0
0.94594595 	0.00017605269 	3.445375e-08 	6929.0725 	0.0027875154 	0.068605699 	1.5675627e-06 	0
0.94804805 	0.0001792216 	3.9396023e-08 	6702.8672 	0.0027810344 	0.06862906 	2.124669e-06 	0
0.95015015 	0.00018239052 	4.4338296e-08 	6476.662 	0.0027745534 	0.068652422 	2.6817754e-06 	0
0.95225225 	0.00018555943 	4.9280569e-08 	6250.4567 	0.0027680724 	0.068675783 	3.2388817e-06 	0
0.95435435 	0.00018872835 	5.4222842e-08 	6024.2514 	0.0027615914 	0.068699144 	3.795988e-06 	0
0.95645646 	0.00018773822 	5.2857296e-08 	6085.9838 	0.002755221 	0.068665436 	3.6435466e-06 	0
0.95855856 	0.00018446981 	4.80364e-08 	6305.445 	0.0027489112 	0.068600466 	3.102423e-06 	0
0.96066066 	0.00018120141 	4.3215504e-08 	6524.9062 	0.0027426014 	0.068535496 	2.5612994e-06 	0
0.96276276 	0.00017793301 	3.8394608e-08 	6744.3675 	0.0027362916 	0.068470526 	2.0201758e-06 	0
0.96486486 	0.0001746646 	3.3573712e-08 	6963.8287 	0.0027299818 	0.068405556 	1.4790522e-06 	0
0.96696697 	0.0001713962 	2.8752816e-08 	7183.29 	0.0027236719 	0.068340586 	9.3792855e-07 	0
0.96906907 	0.00016812779 	2.393192e-08 	7402.7512 	0.0027173621 	0.068275616 	3.9680494e-07 	0
0.97117117 	0.00016901075 	2.5383365e-08 	7335.8896 	0.0027111124 	0.068268544 	5.4631548e-07 	0
0.97327327 	0.00017210693 	3.0177872e-08 	7116.4043 	0.0027048946 	0.068291588 	1.0635407e-06 	0
0.97537538 	0.00017520311 	3.4972379e-08 	6896.919 	0.0026986768 	0.068314633 	1.5807658e-06 	0
0.97747748 	0.00017829929 	3.9766886e-08 	6677.4337 	0.0026924591 	0.068337677 	2.097991e-06 	0
0.97957958 	0.00018139547 	4.4561392e-08 	6457.9484 	0.0026862413 	0.068360721 	2.6152162e-06 	0
0.98168168 	0.00018449165 	4.9355899e-08 	6238.4631 	0.0026800235 	0.068383766 	3.1324414e-06 	0
0.98378378 	0.00018758783 	5.4150406e-08 	6018.9778 	0.0026738058 	0.06840681 	3.6496666e-06 	0
0.98588589 	0.00018654501 	5.2708246e-08 	6084.2496 	0.0026676966 	0.068373323 	3.4949463e-06 	0
0.98798799 	0.00018335579 	4.8031863e-08 	6297.1912 	0.0026616436 	0.068310519 	2.9917675e-06 	0
0.99009009 	0.00018016657 	4.3355481e-08 	6510.1329 	0.0026555907 	0.068247715 	2.4885886e-06 	0
0.99219219 	0.00017697734 	3.8679099e-08 	6723.0745 	0.0026495378 	0.068184911 	1.9854097e-06 	0
0.99429429 	0.00017378812 	3.4002717e-08 	6936.0162 	0.0026434849 	0.068122108 	1.4822309e-06 	0
0.9963964 	0.0001705989 	2.9326335e-08 	7148.9578 	0.002637432 	0.068059304 	9.7905198e-07 	0
0.9984985 	0.00016740967 	2.4649952e-08 	7361.8995 	0.0026313791 	0.0679965 	4.758731e-07 	0
1.0006006 	0.00016701427 	2.4168871e-08 	7383.2449 	0.0026253373 	0.067972651 	4.1788398e-07 	0
1.0027027 	0.00017003597 	2.881775e-08 	7170.2805 	0.0026193092 	0.067995376 	9.0387481e-07 	0
1.0048048 	0.00017305766 	3.3466628e-08 	6957.316 	0.0026132811 	0.0680181 	1.3898656e-06 	0
1.0069069 	0.00017607935 	3.8115507e-08 	6744.3516 	0.002607253 	0.068040824 	1.8758565e-06 	0
1.009009 	0.00017910104 	4.2764385e-08 	6531.3872 	0.002601225 	0.068063548 	2.3618473e-06 	0
1.0111111 	0.00018212273 	4.7413264e-08 	6318.4228 	0.0025951969 	0.068086272 	2.8478381e-06 	0
1.0132132 	0.00018514443 	5.2062142e-08 	6105.4584 	0.0025891688 	0.068108997 	3.333829e-06 	0
1.0153153 	0.00018668747 	5.4496085e-08 	5993.698 	0.0025831794 	0.068111612 	3.5892179e-06 	0
1.0174174 	0.00018357886 	4.9962106e-08 	6200.3132 	0.0025773117 	0.068050965 	3.1191609e-06 	0
1.0195195 	0.00018047025 	4.5428128e-08 	6406.9284 	0.002571444 	0.067990318 	2.6491039e-06 	0
1.0216216 	0.00017736164 	4.0894149e-08 	6613.5435 	0.0025655764 	0.067929672 	2.179047e-06 	0
1.0237237 	0.00017425303 	3.636017e-08 	6820.1587 	0.0025597087 	0.067869025 	1.70899e-06 	0
1.0258258 	0.00017114442 	3.1826192e-08 	7026.7739 	0.002553841 	0.067808378 	1.238933e-06 	0
1.0279279 	0.00016803581 	2.7292213e-08 	7233.3891 	0.0025479734 	0.067747731 	7.6887604e-07 	0
1.03003 	0.00016492721 	2.2758234e-08 	7440.0043 	0.0025421057 	0.067687085 	2.9881907e-07 	0
1.0321321 	0.00016672371 	2.5553904e-08 	7311.4379 	0.0025361409 	0.067693726 	5.8722566e-07 	0
1.0342342 	0.00016966285 	3.0056376e-08 	7104.8011 	0.0025301534 	0.067715449 	1.0522159e-06 	0
1.0363363 	0.00017260199 	3.4558849e-08 	6898.1642 	0.002524166 	0.067737171 	1.5172061e-06 	0
1.0384384 	0.00017554113 	3.9061322e-08 	6691.5274 	0.0025181785 	0.067758894 	1.9821964e-06 	0
1.0405405 	0.00017848028 	4.3563795e-08 	6484.8906 	0.0025121911 	0.067780617 	2.4471866e-06 	0
1.0426426 	0.00018141942 	4.8066267e-08 	6278.2537 	0.0025062036 	0.067802339 	2.9121769e-06 	0
1.0447447 	0.00018435856 	5.256874e-08 	6071.6169 	0.0025002162 	0.067824062 	3.3771671e-06 	0
1.0468468 	0.00018502459 	5.3682817e-08 	6020.0751 	0.0024942897 	0.067814978 	3.4946416e-06 	0
1.0489489 	0.00018199699 	4.9291003e-08 	6220.5513 	0.0024884622 	0.067755835 	3.0474287e-06 	0
1.0510511 	0.00017896938 	4.4899189e-08 	6421.0276 	0.0024826348 	0.067696692 	2.6002157e-06 	0
1.0531532 	0.00017594178 	4.0507375e-08 	6621.5038 	0.0024768073 	0.06763755 	2.1530028e-06 	0
1.0552553 	0.00017291417 	3.611556e-08 	6821.98 	0.0024709799 	0.067578407 	1.7057899e-06 	0
1.0573574 	0.00016988657 	3.1723746e-08 	7022.4563 	0.0024651524 	0.067519265 	1.258577e-06 	0
1.0594595 	0.00016685896 	2.7331932e-08 	7222.9325 	0.0024593249 	0.067460122 	8.1136406e-07 	0
1.0615616 	0.00016383136 	2.2940117e-08 	7423.4087 	0.0024534975 	0.067400979 	3.6415114e-07 	0
1.0636637 	0.00016505223 	2.4868915e-08 	7334.1532 	0.002447606 	0.067400056 	5.6138744e-07 	0
1.0657658 	0.00016790432 	2.9223911e-08 	7133.6561 	0.00244169 	0.06742081 	1.0060115e-06 	0
1.0678679 	0.00017075641 	3.3578907e-08 	6933.159 	0.002435774 	0.067441565 	1.4506356e-06 	0
1.06997 	0.0001736085 	3.7933903e-08 	6732.662 	0.002429858 	0.067462319 	1.8952597e-06 	0
1.0720721 	0.00017646059 	4.2288899e-08 	6532.1649 	0.002423942 	0.067483074 	2.3398838e-06 	0
1.0741742 	0.00017931268 	4.6643895e-08 	6331.6678 	0.0024180259 	0.067503828 	2.7845079e-06 	0
1.0762763 	0.00018216477 	5.0998891e-08 	6131.1708 	0.0024121099 	0.067524583 	3.2291319e-06 	0
1.0783784 	0.00018464503 	5.4801708e-08 	5956.0261 	0.0024062041 	0.067540303 	3.6175903e-06 	0
1.0804805 	0.00018170349 	5.055319e-08 	6150.5456 	0.0024004466 	0.067482612 	3.1870947e-06 	0
1.0825826 	0.00017876195 	4.6304672e-08 	6345.065 	0.0023946891 	0.067424921 	2.7565991e-06 	0
1.0846847 	0.00017582041 	4.2056154e-08 	6539.5845 	0.0023889316 	0.06736723 	2.3261035e-06 	0
1.0867868 	0.00017287887 	3.7807636e-08 	6734.104 	0.0023831741 	0.06730954 	1.8956079e-06 	0
1.0888889 	0.00016993733 	3.3559118e-08 	6928.6235 	0.0023774166 	0.067251849 	1.4651123e-06 	0
1.090991 	0.0001669958 	2.93106e-08 	7123.1429 	0.0023716591 	0.067194158 	1.0346167e-06 	0
1.0930931 	0.00016405426 	2.5062081e-08 	7317.6624 	0.0023659016 	0.067136467 	6.0412107e-07 	0
1.0951952 	0.00016208557 	2.225602e-08 	7445.8456 	0.0023601308 	0.067092522 	3.1927662e-07 	0
1.0972973 	0.00016484954 	2.6464668e-08 	7251.306 	0.0023542955 	0.067112551 	7.4245226e-07 	0
1.0993994 	0.00016761351 	3.0673316e-08 	7056.7664 	0.0023484601 	0.067132581 	1.1656279e-06 	0
1.1015015 	0.00017037749 	3.4881964e-08 	6862.2269 	0.0023426247 	0.067152611 	1.5888035e-06 	0
1.1036036 	0.00017314146 	3.9090612e-08 	6667.6873 	0.0023367893 	0.06717264 	2.0119792e-06 	0
1.1057057 	0.00017590543 	4.329926e-08 	6473.1477 	0.0023309539 	0.06719267 	2.4351548e-06 	0
1.1078078 	0.0001786694 	4.7507908e-08 	6278.6082 	0.0023251186 	0.0672127 	2.8583305e-06 	0
1.1099099 	0.00018143338 	5.1716556e-08 	6084.0686 	0.0023192832 	0.067232729 	3.2815061e-06 	0
1.112012 	0.00018264258 	5.3623452e-08 	5995.632 	0.0023134913 	0.067231673 	3.4740825e-06 	0
1.1141141 	0.00017979021 	4.9517412e-08 	6184.3716 	0.0023078128 	0.067175532 	3.0642573e-06 	0
1.1162162 	0.00017693785 	4.5411371e-08 	6373.1112 	0.0023021344 	0.067119392 	2.6544322e-06 	0
1.1183183 	0.00017408548 	4.1305331e-08 	6561.8508 	0.0022964559 	0.067063251 	2.244607e-06 	0
1.1204204 	0.00017123311 	3.719929e-08 	6750.5904 	0.0022907775 	0.067007111 	1.8347819e-06 	0
1.1225225 	0.00016838075 	3.309325e-08 	6939.3299 	0.002285099 	0.06695097 	1.4249567e-06 	0
1.1246246 	0.00016552838 	2.8987209e-08 	7128.0695 	0.0022794206 	0.06689483 	1.0151316e-06 	0
1.1267267 	0.00016267601 	2.4881169e-08 	7316.8091 	0.0022737421 	0.066838689 	6.0530642e-07 	0
1.1288288 	0.00016060117 	2.1924746e-08 	7452.457 	0.0022680599 	0.066793672 	3.0952325e-07 	0
1.1309309 	0.00016327669 	2.5989209e-08 	7263.698 	0.002262355 	0.066813096 	7.0963577e-07 	0
1.133033 	0.00016595221 	3.0053673e-08 	7074.9391 	0.0022566501 	0.06683252 	1.1097483e-06 	0
1.1351351 	0.00016862773 	3.4118136e-08 	6886.1802 	0.0022509451 	0.066851945 	1.5098608e-06 	0
1.1372372 	0.00017130325 	3.81826e-08 	6697.4213 	0.0022452402 	0.066871369 	1.9099733e-06 	0
1.1393393 	0.00017397877 	4.2247063e-08 	6508.6623 	0.0022395353 	0.066890793 	2.3100859e-06 	0
1.1414414 	0.00017665429 	4.6311527e-08 	6319.9034 	0.0022338304 	0.066910217 	2.7101984e-06 	0
1.1435435 	0.00017932981 	5.037599e-08 	6131.1445 	0.0022281254 	0.066929641 	3.1103109e-06 	0
1.1456456 	0.00018198111 	5.4404693e-08 	5944.0418 	0.0022224212 	0.066948736 	3.5069123e-06 	0
1.1477477 	0.00017921896 	5.0439127e-08 	6127.173 	0.0022168702 	0.06689415 	3.1186304e-06 	0
1.1498498 	0.00017645681 	4.6473562e-08 	6310.3043 	0.0022113191 	0.066839564 	2.7303485e-06 	0
1.151952 	0.00017369465 	4.2507996e-08 	6493.4356 	0.0022057681 	0.066784978 	2.3420666e-06 	0
1.1540541 	0.0001709325 	3.8542431e-08 	6676.5668 	0.0022002171 	0.066730392 	1.9537847e-06 	0
1.1561562 	0.00016817035 	3.4576866e-08 	6859.6981 	0.0021946661 	0.066675806 	1.5655028e-06 	0
1.1582583 	0.0001654082 	3.06113e-08 	7042.8294 	0.002189115 	0.06662122 	1.1772208e-06 	0
1.1603604 	0.00016264604 	2.6645735e-08 	7225.9607 	0.002183564 	0.066566634 	7.8893893e-07 	0
1.1624625 	0.00015988389 	2.268017e-08 	7409.0919 	0.002178013 	0.066512049 	4.0065702e-07 	0
1.1645646 	0.00016042926 	2.3592515e-08 	7365.7511 	0.002172431 	0.066503379 	4.8642793e-07 	0
1.1666667 	0.00016301628 	2.7515284e-08 	7182.6013 	0.00216683 	0.066522253 	8.6462028e-07 	0
1.1687688 	0.0001656033 	3.1438053e-08 	6999.4514 	0.0021612289 	0.066541126 	1.2428126e-06 	0
1.1708709 	0.00016819031 	3.5360821e-08 	6816.3015 	0.0021556279 	0.066559999 	1.621005e-06 	0
1.172973 	0.00017077733 	3.928359e-08 	6633.1516 	0.0021500268 	0.066578872 	1.9991973e-06 	0
1.1750751 	0.00017336435 	4.3206358e-08 	6450.0017 	0.0021444258 	0.066597745 	2.3773897e-06 	0
1.1771772 	0.00017595136 	4.7129127e-08 	6266.8518 	0.0021388247 	0.066616618 	2.755582e-06 	0
1.1792793 	0.00017853838 	5.1051896e-08 	6083.702 	0.0021332236 	0.066635491 	3.1337744e-06 	0
1.1813814 	0.00017990461 	5.3175445e-08 	5984.321 	0.0021276578 	0.066637671 	3.3389257e-06 	0
1.1834835 	0.00017723299 	4.9347975e-08 	6162.0105 	0.0021222084 	0.066584638 	2.9717339e-06 	0
1.1855856 	0.00017456137 	4.5520506e-08 	6339.6999 	0.002116759 	0.066531605 	2.6045421e-06 	0
1.1876877 	0.00017188975 	4.1693036e-08 	6517.3894 	0.0021113096 	0.066478571 	2.2373503e-06 	0
1.1897898 	0.00016921813 	3.7865566e-08 	6695.0789 	0.0021058602 	0.066425538 	1.8701585e-06 	0
1.1918919 	0.00016654651 	3.4038096e-08 	6872.7683 	0.0021004108 	0.066372505 	1.5029667e-06 	0
1.193994 	0.0001638749 	3.0210627e-08 	7050.4578 	0.0020949614 	0.066319472 	1.1357749e-06 	0
1.1960961 	0.00016120328 	2.6383157e-08 	7228.1473 	0.002089512 	0.066266438 	7.685831e-07 	0
1.1981982 	0.00015853166 	2.2555687e-08 	7405.8367 	0.0020840626 	0.066213405 	4.0139131e-07 	0
1.2003003 	0.00015890194 	2.3206837e-08 	7374.4266 	0.0020785447 	0.066202813 	4.6141198e-07 	0
1.2024024 	0.00016140023 	2.6990484e-08 	7196.7192 	0.0020729789 	0.066221067 	8.2012576e-07 	0
1.2045045 	0.00016389851 	3.0774132e-08 	7019.0118 	0.0020674131 	0.066239322 	1.1788395e-06 	0
1.2066066 	0.00016639679 	3.455778e-08 	6841.3044 	0.0020618473 	0.066257576 	1.5375533e-06 	0
1.2087087 	0.00016889507 	3.8341427e-08 	6663.597 	0.0020562814 	0.066275831 	1.8962671e-06 	0
1.2108108 	0.00017139336 	4.2125075e-08 	6485.8896 	0.0020507156 	0.066294085 	2.2549809e-06 	0
1.2129129 	0.00017389164 	4.5908723e-08 	6308.1822 	0.0020451498 	0.06631234 	2.6136947e-06 	0
1.215015 	0.00017638992 	4.9692371e-08 	6130.4748 	0.002039584 	0.066330594 	2.9724085e-06 	0
1.2171171 	0.0001788882 	5.3476018e-08 	5952.7675 	0.0020340182 	0.066348848 	3.3311222e-06 	0
1.2192192 	0.00017658823 	5.0198484e-08 	6105.7668 	0.0020285953 	0.066301129 	3.0229668e-06 	0
1.2213213 	0.00017400663 	4.6506514e-08 	6278.176 	0.0020231809 	0.066249538 	2.6756715e-06 	0
1.2234234 	0.00017142504 	4.2814545e-08 	6450.5852 	0.0020177665 	0.066197947 	2.3283762e-06 	0
1.2255255 	0.00016884344 	3.9122575e-08 	6622.9945 	0.002012352 	0.066146356 	1.9810808e-06 	0
1.2276276 	0.00016626185 	3.5430606e-08 	6795.4037 	0.0020069376 	0.066094764 	1.6337855e-06 	0
1.2297297 	0.00016368025 	3.1738636e-08 	6967.8129 	0.0020015232 	0.066043173 	1.2864902e-06 	0
1.2318318 	0.00016109866 	2.8046667e-08 	7140.2221 	0.0019961087 	0.065991582 	9.3919484e-07 	0
1.2339339 	0.00015851706 	2.4354697e-08 	7312.6313 	0.0019906943 	0.065939991 	5.9189951e-07 	0
1.236036 	0.00015611141 	2.0921744e-08 	7472.8993 	0.001985278 	0.065891339 	2.6891053e-07 	0
1.2381381 	0.00015852133 	2.4569045e-08 	7300.4727 	0.0019798106 	0.065908966 	6.088694e-07 	0
1.2402402 	0.00016093125 	2.8216346e-08 	7128.0462 	0.0019743433 	0.065926593 	9.4882827e-07 	0
1.2423423 	0.00016334117 	3.1863647e-08 	6955.6197 	0.0019688759 	0.06594422 	1.2887871e-06 	0
1.2444444 	0.00016575109 	3.5510947e-08 	6783.1932 	0.0019634085 	0.065961848 	1.628746e-06 	0
1.2465465 	0.00016816101 	3.9158248e-08 	6610.7667 	0.0019579412 	0.065979475 	1.9687049e-06 	0
1.2486486 	0.00017057093 	4.2805549e-08 	6438.3402 	0.0019524738 	0.065997102 	2.3086638e-06 	0
1.2507508 	0.00017298085 	4.645285e-08 	6265.9136 	0.0019470064 	0.066014729 	2.6486226e-06 	0
1.2528529 	0.00017539076 	5.0100151e-08 	6093.4871 	0.001941539 	0.066032356 	2.9885815e-06 	0
1.254955 	0.00017718371 	5.284046e-08 	5963.8159 	0.0019360905 	0.066041444 	3.2442089e-06 	0
1.2570571 	0.00017469146 	4.9281257e-08 	6131.1017 	0.0019307722 	0.065991215 	2.9141118e-06 	0
1.2591592 	0.0001721992 	4.5722053e-08 	6298.3874 	0.001925454 	0.065940987 	2.5840147e-06 	0
1.2612613 	0.00016970695 	4.2162849e-08 	6465.6732 	0.0019201358 	0.065890759 	2.2539176e-06 	0
1.2633634 	0.0001672147 	3.8603646e-08 	6632.959 	0.0019148176 	0.06584053 	1.9238205e-06 	0
1.2654655 	0.00016472245 	3.5044442e-08 	6800.2448 	0.0019094994 	0.065790302 	1.5937233e-06 	0
1.2675676 	0.00016223019 	3.1485239e-08 	6967.5306 	0.0019041812 	0.065740074 	1.2636262e-06 	0
1.2696697 	0.00015973794 	2.7926035e-08 	7134.8163 	0.001898863 	0.065689845 	9.3352912e-07 	0
1.2717718 	0.00015724569 	2.4366831e-08 	7302.1021 	0.0018935448 	0.065639617 	6.0343201e-07 	0
1.2738739 	0.00015475344 	2.0807628e-08 	7469.3879 	0.0018882266 	0.065589389 	2.733349e-07 	0
1.275976 	0.00015680059 	2.391751e-08 	7321.228 	0.0018828137 	0.065603062 	5.5929942e-07 	0
1.2780781 	0.00015912297 	2.7431425e-08 	7153.9255 	0.001877395 	0.065620076 	8.8253796e-07 	0
1.2801802 	0.00016144534 	3.094534e-08 	6986.623 	0.0018719764 	0.06563709 	1.2057765e-06 	0
1.2822823 	0.00016376772 	3.4459254e-08 	6819.3205 	0.0018665578 	0.065654104 	1.5290151e-06 	0
1.2843844 	0.0001660901 	3.7973169e-08 	6652.018 	0.0018611391 	0.065671118 	1.8522536e-06 	0
1.2864865 	0.00016841247 	4.1487084e-08 	6484.7155 	0.0018557205 	0.065688133 	2.1754921e-06 	0
1.2885886 	0.00017073485 	4.5000998e-08 	6317.413 	0.0018503018 	0.065705147 	2.4987307e-06 	0
1.2906907 	0.00017305723 	4.8514913e-08 	6150.1104 	0.0018448832 	0.065722161 	2.8219692e-06 	0
1.2927928 	0.0001753796 	5.2028828e-08 	5982.8079 	0.0018394646 	0.065739175 	3.1452078e-06 	0
1.2948949 	0.0001741114 	5.0267831e-08 	6065.9218 	0.0018341586 	0.065706099 	2.9848427e-06 	0
1.296997 	0.00017170757 	4.6838505e-08 	6228.2363 	0.0018288884 	0.065657182 	2.6715254e-06 	0
1.2990991 	0.00016930375 	4.3409179e-08 	6390.5508 	0.0018236181 	0.065608264 	2.3582081e-06 	0
1.3012012 	0.00016689992 	3.9979853e-08 	6552.8654 	0.0018183478 	0.065559346 	2.0448907e-06 	0
1.3033033 	0.0001644961 	3.6550527e-08 	6715.1799 	0.0018130775 	0.065510428 	1.7315734e-06 	0
1.3054054 	0.00016209227 	3.3121202e-08 	6877.4945 	0.0018078073 	0.065461511 	1.4182561e-06 	0
1.3075075 	0.00015968845 	2.9691876e-08 	7039.809 	0.001802537 	0.065412593 	1.1049387e-06 	0
1.3096096 	0.00015728463 	2.626255e-08 	7202.1236 	0.0017972667 	0.065363675 	7.916214e-07 	0
1.3117117 	0.0001548808 	2.2833224e-08 	7364.4381 	0.0017919964 	0.065314757 	4.7830407e-07 	0
1.3138138 	0.00015384377 	2.1411146e-08 	7431.1371 	0.0017867073 	0.065285592 	3.4775166e-07 	0
1.3159159 	0.00015607977 	2.4794804e-08 	7268.8063 	0.001781373 	0.065302007 	6.5463483e-07 	0
1.318018 	0.00015831576 	2.8178462e-08 	7106.4756 	0.0017760387 	0.065318421 	9.61518e-07 	0
1.3201201 	0.00016055175 	3.156212e-08 	6944.1448 	0.0017707043 	0.065334836 	1.2684012e-06 	0
1.3222222 	0.00016278774 	3.4945778e-08 	6781.8141 	0.00176537 	0.065351251 	1.5752843e-06 	0
1.3243243 	0.00016502373 	3.8329436e-08 	6619.4833 	0.0017600357 	0.065367666 	1.8821675e-06 	0
1.3264264 	0.00016725972 	4.1713094e-08 	6457.1526 	0.0017547014 	0.06538408 	2.1890507e-06 	0
1.3285285 	0.00016949571 	4.5096752e-08 	6294.8218 	0.001749367 	0.065400495 	2.4959338e-06 	0
1.3306306 	0.0001717317 	4.848041e-08 	6132.4911 	0.0017440327 	0.06541691 	2.802817e-06 	0
1.3327327 	0.00017396769 	5.1864068e-08 	5970.1603 	0.0017386984 	0.065433324 	3.1097002e-06 	0
1.3348348 	0.00017242808 	4.9702705e-08 	6073.0669 	0.0017334855 	0.065396601 	2.9150167e-06 	0
1.3369369 	0.00017011146 	4.6400208e-08 	6230.5579 	0.0017282977 	0.065348942 	2.6171136e-06 	0
1.339039 	0.00016779485 	4.3097711e-08 	6388.0489 	0.0017231098 	0.065301284 	2.3192106e-06 	0
1.3411411 	0.00016547824 	3.9795214e-08 	6545.5399 	0.001717922 	0.065253625 	2.0213075e-06 	0
1.3432432 	0.00016316163 	3.6492717e-08 	6703.0309 	0.0017127341 	0.065205966 	1.7234045e-06 	0
1.3453453 	0.00016084501 	3.319022e-08 	6860.5219 	0.0017075463 	0.065158307 	1.4255014e-06 	0
1.3474474 	0.0001585284 	2.9887723e-08 	7018.0129 	0.0017023585 	0.065110649 	1.1275983e-06 	0
1.3495495 	0.00015621179 	2.6585225e-08 	7175.5039 	0.0016971706 	0.06506299 	8.2969526e-07 	0
1.3516517 	0.00015389517 	2.3282728e-08 	7332.9949 	0.0016919828 	0.065015331 	5.317922e-07 	0
1.3537538 	0.00015190652 	2.0461968e-08 	7467.3842 	0.0016867897 	0.064972845 	2.7721474e-07 	0
1.3558559 	0.0001540577 	2.3718679e-08 	7309.8775 	0.0016815306 	0.064988705 	5.6862916e-07 	0
1.357958 	0.00015620889 	2.6975389e-08 	7152.3707 	0.0016762714 	0.065004564 	8.6004359e-07 	0
1.3600601 	0.00015836007 	3.02321e-08 	6994.864 	0.0016710123 	0.065020423 	1.151458e-06 	0
1.3621622 	0.00016051126 	3.3488811e-08 	6837.3573 	0.0016657531 	0.065036282 	1.4428724e-06 	0
1.3642643 	0.00016266245 	3.6745521e-08 	6679.8506 	0.001660494 	0.065052141 	1.7342869e-06 	0
1.3663664 	0.00016481363 	4.0002232e-08 	6522.3439 	0.0016552349 	0.065068 	2.0257013e-06 	0
1.3684685 	0.00016696482 	4.3258943e-08 	6364.8372 	0.0016499757 	0.065083859 	2.3171157e-06 	0
1.3705706 	0.000169116 	4.6515653e-08 	6207.3305 	0.0016447166 	0.065099718 	2.6085301e-06 	0
1.3726727 	0.00017126719 	4.9772364e-08 	6049.8237 	0.0016394574 	0.065115577 	2.8999446e-06 	0
1.3747748 	0.00017202775 	5.0986739e-08 	5990.7967 	0.0016342443 	0.065111672 	3.0091127e-06 	0
1.3768769 	0.00016979697 	4.7807881e-08 	6143.6075 	0.00162913 	0.065065253 	2.7262539e-06 	0
1.378979 	0.00016756619 	4.4629023e-08 	6296.4182 	0.0016240157 	0.065018835 	2.4433952e-06 	0
1.3810811 	0.00016533541 	4.1450165e-08 	6449.229 	0.0016189014 	0.064972416 	2.1605364e-06 	0
1.3831832 	0.00016310463 	3.8271306e-08 	6602.0398 	0.0016137871 	0.064925997 	1.8776777e-06 	0
1.3852853 	0.00016087385 	3.5092448e-08 	6754.8506 	0.0016086728 	0.064879579 	1.5948189e-06 	0
1.3873874 	0.00015864307 	3.191359e-08 	6907.6614 	0.0016035585 	0.06483316 	1.3119602e-06 	0
1.3894895 	0.00015641229 	2.8734732e-08 	7060.4722 	0.0015984442 	0.064786742 	1.0291014e-06 	0
1.3915916 	0.00015418151 	2.5555874e-08 	7213.2829 	0.0015933299 	0.064740323 	7.462427e-07 	0
1.3936937 	0.00015195073 	2.2377016e-08 	7366.0937 	0.0015882156 	0.064693904 	4.6338396e-07 	0
1.3957958 	0.000150845 	2.0850317e-08 	7438.9394 	0.0015830839 	0.064664159 	3.2697547e-07 	0
1.3978979 	0.00015291312 	2.3983509e-08 	7286.1134 	0.0015779032 	0.064679484 	6.0346015e-07 	0
1.4 	0.00015498125 	2.7116701e-08 	7133.2874 	0.0015727225 	0.064694809 	8.7994484e-07 	0
1.4021021 	0.00015704937 	3.0249893e-08 	6980.4613 	0.0015675417 	0.064710135 	1.1564295e-06 	0
1.4042042 	0.00015911749 	3.3383085e-08 	6827.6353 	0.001562361 	0.06472546 	1.4329142e-06 	0
1.4063063 	0.00016118561 	3.6516277e-08 	6674.8093 	0.0015571803 	0.064740785 	1.7093989e-06 	0
1.4084084 	0.00016325374 	3.964947e-08 	6521.9833 	0.0015519995 	0.06475611 	1.9858836e-06 	0
1.4105105 	0.00016532186 	4.2782662e-08 	6369.1573 	0.0015468188 	0.064771436 	2.2623683e-06 	0
1.4126126 	0.00016738998 	4.5915854e-08 	6216.3313 	0.0015416381 	0.064786761 	2.538853e-06 	0
1.4147147 	0.0001694581 	4.9049046e-08 	6063.5052 	0.0015364573 	0.064802086 	2.8153376e-06 	0
1.4168168 	0.00017065832 	5.0907241e-08 	5972.6805 	0.0015313061 	0.064804944 	2.9796351e-06 	0
1.4189189 	0.00016851166 	4.7848692e-08 	6120.9502 	0.0015262684 	0.064759727 	2.7113077e-06 	0
1.421021 	0.000166365 	4.4790143e-08 	6269.2198 	0.0015212308 	0.064714509 	2.4429803e-06 	0
1.4231231 	0.00016421835 	4.1731595e-08 	6417.4894 	0.0015161931 	0.064669291 	2.1746529e-06 	0
1.4252252 	0.00016207169 	3.8673046e-08 	6565.759 	0.0015111555 	0.064624073 	1.9063254e-06 	0
1.4273273 	0.00015992503 	3.5614497e-08 	6714.0287 	0.0015061179 	0.064578856 	1.637998e-06 	0
1.4294294 	0.00015777837 	3.2555948e-08 	6862.2983 	0.0015010802 	0.064533638 	1.3696706e-06 	0
1.4315315 	0.00015563171 	2.9497399e-08 	7010.5679 	0.0014960426 	0.06448842 	1.1013431e-06 	0
1.4336336 	0.00015348505 	2.643885e-08 	7158.8375 	0.0014910049 	0.064443202 	8.330157e-07 	0
1.4357357 	0.00015133839 	2.3380301e-08 	7307.1072 	0.0014859673 	0.064397984 	5.6468827e-07 	0
1.4378378 	0.00014919173 	2.0321753e-08 	7455.3768 	0.0014809296 	0.064352767 	2.9636084e-07 	0
1.4399399 	0.00015052304 	2.2371917e-08 	7354.1655 	0.0014758633 	0.064358599 	4.7413551e-07 	0
1.442042 	0.00015251019 	2.5385151e-08 	7205.8811 	0.0014707916 	0.064373444 	7.3594893e-07 	0
1.4441441 	0.00015449733 	2.8398386e-08 	7057.5967 	0.0014657198 	0.064388288 	9.9776234e-07 	0
1.4462462 	0.00015648448 	3.141162e-08 	6909.3123 	0.0014606481 	0.064403132 	1.2595758e-06 	0
1.4483483 	0.00015847163 	3.4424854e-08 	6761.0279 	0.0014555763 	0.064417976 	1.5213892e-06 	0
1.4504505 	0.00016045878 	3.7438089e-08 	6612.7435 	0.0014505046 	0.064432821 	1.7832026e-06 	0
1.4525526 	0.00016244592 	4.0451323e-08 	6464.4591 	0.0014454328 	0.064447665 	2.045016e-06 	0
1.4546547 	0.00016443307 	4.3464557e-08 	6316.1747 	0.0014403611 	0.064462509 	2.3068294e-06 	0
1.4567568 	0.00016642022 	4.6477792e-08 	6167.8903 	0.0014352894 	0.064477353 	2.5686428e-06 	0
1.4588589 	0.00016840736 	4.9491026e-08 	6019.606 	0.0014302176 	0.064492197 	2.8304562e-06 	0
1.460961 	0.00016846351 	4.9666065e-08 	6010.5637 	0.0014252128 	0.064478983 	2.8462234e-06 	0
1.4630631 	0.00016639917 	4.6724401e-08 	6154.4271 	0.0014202815 	0.064434958 	2.5918003e-06 	0
1.4651652 	0.00016433484 	4.3782737e-08 	6298.2905 	0.0014153501 	0.064390932 	2.3373772e-06 	0
1.4672673 	0.0001622705 	4.0841073e-08 	6442.1539 	0.0014104188 	0.064346907 	2.082954e-06 	0
1.4693694 	0.00016020616 	3.7899409e-08 	6586.0173 	0.0014054875 	0.064302881 	1.8285309e-06 	0
1.4714715 	0.00015814182 	3.4957745e-08 	6729.8807 	0.0014005561 	0.064258856 	1.5741078e-06 	0
1.4735736 	0.00015607749 	3.2016081e-08 	6873.744 	0.0013956248 	0.06421483 	1.3196847e-06 	0
1.4756757 	0.00015401315 	2.9074417e-08 	7017.6074 	0.0013906935 	0.064170805 	1.0652615e-06 	0
1.4777778 	0.00015194881 	2.6132753e-08 	7161.4708 	0.0013857621 	0.064126779 	8.1083842e-07 	0
1.4798799 	0.00014988448 	2.319109e-08 	7305.3342 	0.0013808308 	0.064082754 	5.5641529e-07 	0
1.481982 	0.00014782014 	2.0249426e-08 	7449.1976 	0.0013758994 	0.064038728 	3.0199217e-07 	0
1.4840841 	0.00014890859 	2.1941613e-08 	7364.7282 	0.0013709264 	0.064041582 	4.4635694e-07 	0
1.4861862 	0.00015081691 	2.4838516e-08 	7220.8505 	0.0013659425 	0.06405597 	6.9433501e-07 	0
1.4882883 	0.00015272522 	2.773542e-08 	7076.9728 	0.0013609586 	0.064070359 	9.4231308e-07 	0
1.4903904 	0.00015463354 	3.0632323e-08 	6933.0951 	0.0013559747 	0.064084748 	1.1902912e-06 	0
1.4924925 	0.00015654186 	3.3529226e-08 	6789.2174 	0.0013509908 	0.064099136 	1.4382692e-06 	0
1.4945946 	0.00015845017 	3.6426129e-08 	6645.3397 	0.0013460069 	0.064113525 	1.6862473e-06 	0
1.4966967 	0.00016035849 	3.9323032e-08 	6501.462 	0.001341023 	0.064127914 	1.9342254e-06 	0
1.4987988 	0.00016226681 	4.2219936e-08 	6357.5843 	0.0013360391 	0.064142302 	2.1822034e-06 	0
1.5009009 	0.00016417512 	4.5116839e-08 	6213.7066 	0.0013310553 	0.064156691 	2.4301815e-06 	0
1.503003 	0.00016608344 	4.8013742e-08 	6069.8289 	0.0013260714 	0.06417108 	2.6781596e-06 	0
1.5051051 	0.00016756181 	5.0278254e-08 	5957.2622 	0.0013211027 	0.064179144 	2.8721664e-06 	0
1.5072072 	0.00016557771 	4.7449956e-08 	6096.8502 	0.0013162572 	0.064136278 	2.6315291e-06 	0
1.5093093 	0.00016359361 	4.4621658e-08 	6236.4383 	0.0013114116 	0.064093413 	2.3908917e-06 	0
1.5114114 	0.00016160951 	4.179336e-08 	6376.0264 	0.0013065661 	0.064050547 	2.1502544e-06 	0
1.5135135 	0.00015962541 	3.8965063e-08 	6515.6145 	0.0013017205 	0.064007681 	1.9096171e-06 	0
1.5156156 	0.00015764131 	3.6136765e-08 	6655.2026 	0.001296875 	0.063964815 	1.6689798e-06 	0
1.5177177 	0.0001556572 	3.3308467e-08 	6794.7907 	0.0012920294 	0.063921949 	1.4283424e-06 	0
1.5198198 	0.0001536731 	3.0480169e-08 	6934.3788 	0.0012871839 	0.063879083 	1.1877051e-06 	0
1.5219219 	0.000151689 	2.7651872e-08 	7073.9668 	0.0012823383 	0.063836217 	9.470678e-07 	0
1.524024 	0.0001497049 	2.4823574e-08 	7213.5549 	0.0012774928 	0.063793352 	7.0643048e-07 	0
1.5261261 	0.0001477208 	2.1995276e-08 	7353.143 	0.0012726472 	0.063750486 	4.6579316e-07 	0
1.5282282 	0.00014611548 	1.9724315e-08 	7465.0444 	0.0012678025 	0.063713784 	2.723674e-07 	0
1.5303303 	0.0001479473 	2.2508571e-08 	7325.4425 	0.0012629651 	0.063727758 	5.0662865e-07 	0
1.5324324 	0.00014977912 	2.5292827e-08 	7185.8406 	0.0012581277 	0.063741731 	7.4088991e-07 	0
1.5345345 	0.00015161094 	2.8077084e-08 	7046.2386 	0.0012532903 	0.063755704 	9.7515116e-07 	0
1.5366366 	0.00015344276 	3.086134e-08 	6906.6367 	0.001248453 	0.063769677 	1.2094124e-06 	0
1.5387387 	0.00015527458 	3.3645596e-08 	6767.0348 	0.0012436156 	0.06378365 	1.4436737e-06 	0
1.5408408 	0.00015710641 	3.6429853e-08 	6627.4329 	0.0012387782 	0.063797623 	1.6779349e-06 	0
1.5429429 	0.00015893823 	3.9214109e-08 	6487.831 	0.0012339408 	0.063811597 	1.9121962e-06 	0
1.545045 	0.00016077005 	4.1998365e-08 	6348.229 	0.0012291034 	0.06382557 	2.1464574e-06 	0
1.5471471 	0.00016260187 	4.4782622e-08 	6208.6271 	0.001224266 	0.063839543 	2.3807187e-06 	0
1.5492492 	0.00016443369 	4.7566878e-08 	6069.0252 	0.0012194286 	0.063853516 	2.61498e-06 	0
1.5513514 	0.00016593703 	4.9867554e-08 	5953.5939 	0.0012146031 	0.063862594 	2.8086398e-06 	0
1.5534535 	0.000164031 	4.714906e-08 	6089.0337 	0.0012099002 	0.063820866 	2.5808903e-06 	0
1.5555556 	0.00016212496 	4.4430567e-08 	6224.4735 	0.0012051973 	0.063779138 	2.3531408e-06 	0
1.5576577 	0.00016021893 	4.1712073e-08 	6359.9133 	0.0012004945 	0.06373741 	2.1253913e-06 	0
1.5597598 	0.0001583129 	3.899358e-08 	6495.3531 	0.0011957916 	0.063695681 	1.8976418e-06 	0
1.5618619 	0.00015640686 	3.6275086e-08 	6630.7929 	0.0011910887 	0.063653953 	1.6698923e-06 	0
1.563964 	0.00015450083 	3.3556592e-08 	6766.2327 	0.0011863858 	0.063612225 	1.4421428e-06 	0
1.5660661 	0.0001525948 	3.0838099e-08 	6901.6725 	0.001181683 	0.063570497 	1.2143933e-06 	0
1.5681682 	0.00015068876 	2.8119605e-08 	7037.1123 	0.0011769801 	0.063528769 	9.8664375e-07 	0
1.5702703 	0.00014878273 	2.5401112e-08 	7172.5521 	0.0011722772 	0.06348704 	7.5889424e-07 	0
1.5723724 	0.0001468767 	2.2682618e-08 	7307.9919 	0.0011675743 	0.063445312 	5.3114474e-07 	0
1.5744745 	0.00014497066 	1.9964125e-08 	7443.4317 	0.0011628715 	0.063403584 	3.0339523e-07 	0
1.5765766 	0.00014576993 	2.1228622e-08 	7378.872 	0.0011581644 	0.063403223 	4.0741252e-07 	0
1.5786787 	0.00014752763 	2.3903936e-08 	7243.4188 	0.0011534557 	0.063416807 	6.2886978e-07 	0
1.5807808 	0.00014928534 	2.6579249e-08 	7107.9657 	0.0011487471 	0.063430391 	8.5032703e-07 	0
1.5828829 	0.00015104304 	2.9254563e-08 	6972.5125 	0.0011440385 	0.063443975 	1.0717843e-06 	0
1.584985 	0.00015280075 	3.1929877e-08 	6837.0593 	0.0011393299 	0.06345756 	1.2932415e-06 	0
1.5870871 	0.00015455845 	3.4605191e-08 	6701.6061 	0.0011346213 	0.063471144 	1.5146988e-06 	0
1.5891892 	0.00015631616 	3.7280504e-08 	6566.1529 	0.0011299126 	0.063484728 	1.736156e-06 	0
1.5912913 	0.00015807386 	3.9955818e-08 	6430.6997 	0.001125204 	0.063498312 	1.9576133e-06 	0
1.5933934 	0.00015983157 	4.2631132e-08 	6295.2466 	0.0011204954 	0.063511896 	2.1790706e-06 	0
1.5954955 	0.00016158927 	4.5306446e-08 	6159.7934 	0.0011157868 	0.063525481 	2.4005278e-06 	0
1.5975976 	0.00016334698 	4.7981759e-08 	6024.3402 	0.0011110782 	0.063539065 	2.6219851e-06 	0
1.5996997 	0.00016370997 	4.8601701e-08 	5992.6227 	0.0011064205 	0.063531577 	2.6738099e-06 	0
1.6018018 	0.00016187966 	4.5989414e-08 	6124.0374 	0.0011018431 	0.063490951 	2.4588751e-06 	0
1.6039039 	0.00016004936 	4.3377127e-08 	6255.4522 	0.0010972657 	0.063450325 	2.2439403e-06 	0
1.606006 	0.00015821906 	4.076484e-08 	6386.8669 	0.0010926882 	0.063409699 	2.0290055e-06 	0
1.6081081 	0.00015638876 	3.8152554e-08 	6518.2817 	0.0010881108 	0.063369073 	1.8140706e-06 	0
1.6102102 	0.00015455846 	3.5540267e-08 	6649.6964 	0.0010835334 	0.063328447 	1.5991358e-06 	0
1.6123123 	0.00015272815 	3.292798e-08 	6781.1111 	0.0010789559 	0.063287821 	1.384201e-06 	0
1.6144144 	0.00015089785 	3.0315693e-08 	6912.5259 	0.0010743785 	0.063247195 	1.1692661e-06 	0
1.6165165 	0.00014906755 	2.7703406e-08 	7043.9406 	0.0010698011 	0.063206569 	9.5433131e-07 	0
1.6186186 	0.00014723725 	2.509112e-08 	7175.3553 	0.0010652236 	0.063165943 	7.3939648e-07 	0
1.6207207 	0.00014540694 	2.2478833e-08 	7306.7701 	0.0010606462 	0.063125317 	5.2446165e-07 	0
1.6228228 	0.00014357664 	1.9866546e-08 	7438.1848 	0.0010560688 	0.063084691 	3.0952682e-07 	0
1.6249249 	0.00014417462 	2.0833175e-08 	7388.1211 	0.001051541 	0.06308179 	3.8737375e-07 	0
1.627027 	0.00014586075 	2.3403265e-08 	7256.6934 	0.0010470356 	0.063095034 	5.9631738e-07 	0
1.6291291 	0.00014754688 	2.5973355e-08 	7125.2658 	0.0010425301 	0.063108278 	8.0526101e-07 	0
1.6312312 	0.00014923301 	2.8543445e-08 	6993.8381 	0.0010380247 	0.063121522 	1.0142046e-06 	0
1.6333333 	0.00015091914 	3.1113535e-08 	6862.4104 	0.0010335192 	0.063134766 	1.2231483e-06 	0
1.6354354 	0.00015260527 	3.3683625e-08 	6730.9827 	0.0010290137 	0.06314801 	1.4320919e-06 	0
1.6375375 	0.0001542914 	3.6253715e-08 	6599.5551 	0.0010245083 	0.063161254 	1.6410355e-06 	0
1.6396396 	0.00015597753 	3.8823805e-08 	6468.1274 	0.0010200028 	0.063174499 	1.8499791e-06 	0
1.6417417 	0.00015766366 	4.1393895e-08 	6336.6997 	0.0010154974 	0.063187743 	2.0589228e-06 	0
1.6438438 	0.00015934979 	4.3963985e-08 	6205.272 	0.0010109919 	0.063200987 	2.2678664e-06 	0
1.6459459 	0.00016103592 	4.6534075e-08 	6073.8444 	0.0010064865 	0.063214231 	2.47681e-06 	0
1.648048 	0.00016272205 	4.9104165e-08 	5942.4167 	0.001001981 	0.063227475 	2.6857537e-06 	0
1.6501502 	0.0001609921 	4.6634233e-08 	6067.9005 	0.00099760018 	0.063188353 	2.4857724e-06 	0
1.6522523 	0.00015923522 	4.4124565e-08 	6195.4098 	0.00099322035 	0.063148819 	2.2825673e-06 	0
1.6543544 	0.00015747834 	4.1614898e-08 	6322.919 	0.00098884051 	0.063109284 	2.0793621e-06 	0
1.6564565 	0.00015572146 	3.9105231e-08 	6450.4283 	0.00098446068 	0.06306975 	1.876157e-06 	0
1.6585586 	0.00015396458 	3.6595564e-08 	6577.9375 	0.00098008085 	0.063030216 	1.6729519e-06 	0
1.6606607 	0.0001522077 	3.4085896e-08 	6705.4468 	0.00097570102 	0.062990681 	1.4697468e-06 	0
1.6627628 	0.00015045082 	3.1576229e-08 	6832.956 	0.00097132118 	0.062951147 	1.2665416e-06 	0
1.6648649 	0.00014869394 	2.9066562e-08 	6960.4653 	0.00096694135 	0.062911613 	1.0633365e-06 	0
1.666967 	0.00014693706 	2.6556895e-08 	7087.9745 	0.00096256152 	0.062872078 	8.6013136e-07 	0
1.6690691 	0.00014518018 	2.4047227e-08 	7215.4838 	0.00095818169 	0.062832544 	6.5692623e-07 	0
1.6711712 	0.0001434233 	2.153756e-08 	7342.993 	0.00095380185 	0.06279301 	4.5372109e-07 	0
1.6732733 	0.00014166642 	1.9027893e-08 	7470.5023 	0.00094942202 	0.062753475 	2.5051596e-07 	0
1.6753754 	0.00014306259 	2.117116e-08 	7359.6826 	0.00094508341 	0.06276343 	4.2198528e-07 	0
1.6774775 	0.00014467931 	2.3639682e-08 	7232.1609 	0.00094074768 	0.062776282 	6.1959154e-07 	0
1.6795796 	0.00014629604 	2.6108204e-08 	7104.6391 	0.00093641196 	0.062789134 	8.1719781e-07 	0
1.6816817 	0.00014791277 	2.8576725e-08 	6977.1174 	0.00093207623 	0.062801986 	1.0148041e-06 	0
1.6837838 	0.00014952949 	3.1045247e-08 	6849.5956 	0.00092774051 	0.062814838 	1.2124103e-06 	0
1.6858859 	0.00015114622 	3.3513769e-08 	6722.0738 	0.00092340478 	0.06282769 	1.4100166e-06 	0
1.687988 	0.00015276295 	3.5982291e-08 	6594.5521 	0.00091906906 	0.062840542 	1.6076229e-06 	0
1.6900901 	0.00015437967 	3.8450812e-08 	6467.0303 	0.00091473333 	0.062853394 	1.8052291e-06 	0
1.6921922 	0.0001559964 	4.0919334e-08 	6339.5085 	0.00091039761 	0.062866246 	2.0028354e-06 	0
1.6942943 	0.00015761313 	4.3387856e-08 	6211.9868 	0.00090606188 	0.062879099 	2.2004416e-06 	0
1.6963964 	0.00015922985 	4.5856377e-08 	6084.465 	0.00090172615 	0.062891951 	2.3980479e-06 	0
1.6984985 	0.00016084658 	4.8324899e-08 	5956.9433 	0.00089739043 	0.062904803 	2.5956542e-06 	0
1.7006006 	0.00015956703 	4.6515111e-08 	6049.7209 	0.00089316084 	0.062872555 	2.4523537e-06 	0
1.7027027 	0.00015788069 	4.4104413e-08 	6173.4407 	0.00088894615 	0.062833973 	2.2611711e-06 	0
1.7048048 	0.00015619435 	4.1693715e-08 	6297.1605 	0.00088473146 	0.062795391 	2.0699886e-06 	0
1.7069069 	0.00015450801 	3.9283018e-08 	6420.8803 	0.00088051677 	0.062756809 	1.878806e-06 	0
1.709009 	0.00015282167 	3.687232e-08 	6544.6 	0.00087630208 	0.062718227 	1.6876234e-06 	0
1.7111111 	0.00015113533 	3.4461622e-08 	6668.3198 	0.0008720874 	0.062679645 	1.4964409e-06 	0
1.7132132 	0.00014944899 	3.2050924e-08 	6792.0396 	0.00086787271 	0.062641063 	1.3052583e-06 	0
1.7153153 	0.00014776265 	2.9640226e-08 	6915.7594 	0.00086365802 	0.062602481 	1.1140758e-06 	0
1.7174174 	0.00014607631 	2.7229528e-08 	7039.4792 	0.00085944333 	0.062563899 	9.2289322e-07 	0
1.7195195 	0.00014438996 	2.4818831e-08 	7163.199 	0.00085522865 	0.062525317 	7.3171067e-07 	0
1.7216216 	0.00014270362 	2.2408133e-08 	7286.9188 	0.00085101396 	0.062486735 	5.4052811e-07 	0
1.7237237 	0.00014101728 	1.9997435e-08 	7410.6385 	0.00084679927 	0.062448153 	3.4934556e-07 	0
1.7258258 	0.00014078388 	1.973307e-08 	7423.3184 	0.00084272647 	0.062433119 	3.2762492e-07 	0
1.7279279 	0.00014233455 	2.210374e-08 	7299.5866 	0.00083882797 	0.062445825 	5.1385878e-07 	0
1.73003 	0.00014388521 	2.4474409e-08 	7175.8547 	0.00083492947 	0.06245853 	7.0009264e-07 	0
1.7321321 	0.00014543587 	2.6845078e-08 	7052.1229 	0.00083103097 	0.062471236 	8.8632649e-07 	0
1.7342342 	0.00014698654 	2.9215748e-08 	6928.3911 	0.00082713247 	0.062483942 	1.0725604e-06 	0
1.7363363 	0.0001485372 	3.1586417e-08 	6804.6592 	0.00082323397 	0.062496648 	1.2587942e-06 	0
1.7384384 	0.00015008787 	3.3957086e-08 	6680.9274 	0.00081933547 	0.062509353 	1.4450281e-06 	0
1.7405405 	0.00015163853 	3.6327756e-08 	6557.1955 	0.00081543697 	0.062522059 	1.6312619e-06 	0
1.7426426 	0.0001531892 	3.8698425e-08 	6433.4637 	0.00081153847 	0.062534765 	1.8174958e-06 	0
1.7447447 	0.00015473986 	4.1069094e-08 	6309.7319 	0.00080763997 	0.06254747 	2.0037296e-06 	0
1.7468468 	0.00015629053 	4.3439764e-08 	6186 	0.00080374147 	0.062560176 	2.1899635e-06 	0
1.7489489 	0.00015784119 	4.5810433e-08 	6062.2682 	0.00079984297 	0.062572882 	2.3761974e-06 	0
1.7510511 	0.00015932651 	4.8084451e-08 	5943.5646 	0.00079594671 	0.062584554 	2.5548233e-06 	0
1.7531532 	0.00015770926 	4.5769358e-08 	6063.6074 	0.00079215666 	0.062547137 	2.3722165e-06 	0
1.7552553 	0.00015609201 	4.3454264e-08 	6183.6503 	0.00078836662 	0.062509721 	2.1896096e-06 	0
1.7573574 	0.00015447476 	4.113917e-08 	6303.6932 	0.00078457657 	0.062472304 	2.0070027e-06 	0
1.7594595 	0.00015285751 	3.8824076e-08 	6423.7361 	0.00078078653 	0.062434888 	1.8243959e-06 	0
1.7615616 	0.00015124026 	3.6508982e-08 	6543.7789 	0.00077699648 	0.062397471 	1.641789e-06 	0
1.7636637 	0.00014962301 	3.4193888e-08 	6663.8218 	0.00077320643 	0.062360055 	1.4591821e-06 	0
1.7657658 	0.00014800576 	3.1878795e-08 	6783.8647 	0.00076941639 	0.062322638 	1.2765753e-06 	0
1.7678679 	0.00014638851 	2.9563701e-08 	6903.9076 	0.00076562634 	0.062285222 	1.0939684e-06 	0
1.76997 	0.00014477126 	2.7248607e-08 	7023.9504 	0.00076183629 	0.062247805 	9.1136156e-07 	0
1.7720721 	0.00014315401 	2.4933513e-08 	7143.9933 	0.00075804625 	0.062210389 	7.287547e-07 	0
1.7741742 	0.00014153676 	2.2618419e-08 	7264.0362 	0.0007542562 	0.062172972 	5.4614784e-07 	0
1.7762763 	0.00013991951 	2.0303325e-08 	7384.0791 	0.00075046616 	0.062135556 	3.6354097e-07 	0
1.7783784 	0.00013895607 	1.8956346e-08 	7453.5344 	0.00074663064 	0.062109057 	2.5709114e-07 	0
1.7804805 	0.00014044015 	2.1232416e-08 	7333.4797 	0.00074262478 	0.062120877 	4.3551537e-07 	0
1.7825826 	0.00014192423 	2.3508487e-08 	7213.4251 	0.00073861892 	0.062132697 	6.139396e-07 	0
1.7846847 	0.00014340831 	2.5784557e-08 	7093.3705 	0.00073461306 	0.062144517 	7.9236383e-07 	0
1.7867868 	0.00014489239 	2.8060627e-08 	6973.3159 	0.0007306072 	0.062156337 	9.7078805e-07 	0
1.7888889 	0.00014637648 	3.0336698e-08 	6853.2612 	0.00072660134 	0.062168157 	1.1492123e-06 	0
1.790991 	0.00014786056 	3.2612768e-08 	6733.2066 	0.00072259548 	0.062179977 	1.3276365e-06 	0
1.7930931 	0.00014934464 	3.4888838e-08 	6613.152 	0.00071858962 	0.062191797 	1.5060607e-06 	0
1.7951952 	0.00015082872 	3.7164909e-08 	6493.0973 	0.00071458376 	0.062203617 	1.684485e-06 	0
1.7972973 	0.0001523128 	3.9440979e-08 	6373.0427 	0.0007105779 	0.062215437 	1.8629092e-06 	0
1.7993994 	0.00015379688 	4.171705e-08 	6252.9881 	0.00070657204 	0.062227257 	2.0413334e-06 	0
1.8015015 	0.00015528096 	4.399312e-08 	6132.9334 	0.00070256618 	0.062239077 	2.2197577e-06 	0
1.8036036 	0.00015676504 	4.626919e-08 	6012.8788 	0.00069856032 	0.062250897 	2.3981819e-06 	0
1.8057057 	0.00015703137 	4.6741958e-08 	5987.6176 	0.00069459938 	0.062243058 	2.4382705e-06 	0
1.8078078 	0.00015547692 	4.4518402e-08 	6104.0929 	0.00069070559 	0.062205825 	2.2715176e-06 	0
1.8099099 	0.00015392246 	4.2294845e-08 	6220.5681 	0.00068681181 	0.062168592 	2.1047648e-06 	0
1.812012 	0.000152368 	4.0071289e-08 	6337.0434 	0.00068291803 	0.062131359 	1.938012e-06 	0
1.8141141 	0.00015081354 	3.7847733e-08 	6453.5186 	0.00067902424 	0.062094126 	1.7712592e-06 	0
1.8162162 	0.00014925908 	3.5624177e-08 	6569.9939 	0.00067513046 	0.062056893 	1.6045064e-06 	0
1.8183183 	0.00014770463 	3.3400621e-08 	6686.4691 	0.00067123668 	0.06201966 	1.4377536e-06 	0
1.8204204 	0.00014615017 	3.1177065e-08 	6802.9444 	0.00066734289 	0.061982428 	1.2710008e-06 	0
1.8225225 	0.00014459571 	2.8953509e-08 	6919.4197 	0.00066344911 	0.061945195 	1.104248e-06 	0
1.8246246 	0.00014304125 	2.6729952e-08 	7035.8949 	0.00065955533 	0.061907962 	9.3749518e-07 	0
1.8267267 	0.00014148679 	2.4506396e-08 	7152.3702 	0.00065566154 	0.061870729 	7.7074237e-07 	0
1.8288288 	0.00013993233 	2.228284e-08 	7268.8454 	0.00065176776 	0.061833496 	6.0398957e-07 	0
1.8309309 	0.00013837788 	2.0059284e-08 	7385.3207 	0.00064787398 	0.061796263 	4.3723676e-07 	0
1.833033 	0.00013741241 	1.8706446e-08 	7455.8361 	0.00064436042 	0.061769514 	3.3992003e-07 	0
1.8351351 	0.00013884144 	2.0892496e-08 	7339.3496 	0.00064239395 	0.06178276 	5.2742876e-07 	0
1.8372372 	0.00014027046 	2.3078545e-08 	7222.8631 	0.00064042749 	0.061796006 	7.1493749e-07 	0
1.8393393 	0.00014169949 	2.5264595e-08 	7106.3766 	0.00063846103 	0.061809252 	9.0244622e-07 	0
1.8414414 	0.00014312851 	2.7450645e-08 	6989.8902 	0.00063649457 	0.061822497 	1.0899549e-06 	0
1.8435435 	0.00014455753 	2.9636694e-08 	6873.4037 	0.0006345281 	0.061835743 	1.2774637e-06 	0
1.8456456 	0.00014598656 	3.1822744e-08 	6756.9172 	0.00063256164 	0.061848989 	1.4649724e-06 	0
1.8477477 	0.00014741558 	3.4008794e-08 	6640.4307 	0.00063059518 	0.061862235 	1.6524811e-06 	0
1.8498498 	0.0001488446 	3.6194844e-08 	6523.9442 	0.00062862871 	0.06187548 	1.8399899e-06 	0
1.851952 	0.00015027363 	3.8380893e-08 	6407.4577 	0.00062666225 	0.061888726 	2.0274986e-06 	0
1.8540541 	0.00015170265 	4.0566943e-08 	6290.9712 	0.00062469579 	0.061901972 	2.2150073e-06 	0
1.8561562 	0.00015313168 	4.2752993e-08 	6174.4848 	0.00062272933 	0.061915218 	2.4025161e-06 	0
1.8582583 	0.0001545607 	4.4939042e-08 	6057.9983 	0.00062076286 	0.061928463 	2.5900248e-06 	0
1.8603604 	0.00015598972 	4.7125092e-08 	5941.5118 	0.0006187964 	0.061941709 	2.7775335e-06 	0
1.8624625 	0.00015452428 	4.5017985e-08 	6053.1035 	0.00061688023 	0.061907579 	2.637246e-06 	0
1.8645646 	0.00015304079 	4.2884113e-08 	6166.1171 	0.00061496436 	0.061873154 	2.4949149e-06 	0
1.8666667 	0.0001515573 	4.0750242e-08 	6279.1307 	0.0006130485 	0.061838729 	2.3525838e-06 	0
1.8687688 	0.0001500738 	3.8616371e-08 	6392.1443 	0.00061113264 	0.061804304 	2.2102527e-06 	0
1.8708709 	0.00014859031 	3.6482499e-08 	6505.158 	0.00060921678 	0.061769878 	2.0679216e-06 	0
1.872973 	0.00014710682 	3.4348628e-08 	6618.1716 	0.00060730091 	0.061735453 	1.9255905e-06 	0
1.8750751 	0.00014562333 	3.2214756e-08 	6731.1852 	0.00060538505 	0.061701028 	1.7832594e-06 	0
1.8771772 	0.00014413984 	3.0080885e-08 	6844.1988 	0.00060346919 	0.061666603 	1.6409283e-06 	0
1.8792793 	0.00014265635 	2.7947013e-08 	6957.2124 	0.00060155333 	0.061632177 	1.4985972e-06 	0
1.8813814 	0.00014117286 	2.5813142e-08 	7070.226 	0.00059963747 	0.061597752 	1.3562661e-06 	0
1.8834835 	0.00013968937 	2.367927e-08 	7183.2396 	0.0005977216 	0.061563327 	1.213935e-06 	0
1.8855856 	0.00013820588 	2.1545399e-08 	7296.2532 	0.00059580574 	0.061528902 	1.0716039e-06 	0
1.8876877 	0.00013672239 	1.9411527e-08 	7409.2668 	0.00059388988 	0.061494477 	9.2927285e-07 	0
1.8897898 	0.0001363287 	1.8905168e-08 	7435.3283 	0.00058872081 	0.061477017 	1.0320545e-06 	0
1.8918919 	0.00013767724 	2.0999991e-08 	7322.3038 	0.00057834846 	0.061485152 	1.5488927e-06 	0
1.893994 	0.00013902579 	2.3094814e-08 	7209.2792 	0.00056797612 	0.061493286 	2.0657308e-06 	0
1.8960961 	0.00014037433 	2.5189637e-08 	7096.2547 	0.00055760377 	0.061501421 	2.582569e-06 	0
1.8981982 	0.00014172287 	2.728446e-08 	6983.2302 	0.00054723143 	0.061509556 	3.0994071e-06 	0
1.9003003 	0.00014307141 	2.9379283e-08 	6870.2057 	0.00053685908 	0.06151769 	3.6162453e-06 	0
1.9024024 	0.00014441996 	3.1474106e-08 	6757.1812 	0.00052648673 	0.061525825 	4.1330834e-06 	0
1.9045045 	0.0001457685 	3.3568929e-08 	6644.1567 	0.00051611439 	0.061533959 	4.6499215e-06 	0
1.9066066 	0.00014711704 	3.5663752e-08 	6531.1322 	0.00050574204 	0.061542094 	5.1667597e-06 	0
1.9087087 	0.00014846559 	3.7758575e-08 	6418.1077 	0.0004953697 	0.061550229 	5.6835978e-06 	0
1.9108108 	0.00014981413 	3.9853398e-08 	6305.0832 	0.00048499735 	0.061558363 	6.200436e-06 	0
1.9129129 	0.00015116267 	4.1948221e-08 	6192.0586 	0.00047462501 	0.061566498 	6.7172741e-06 	0
1.915015 	0.00015251121 	4.4043044e-08 	6079.0341 	0.00046425266 	0.061574632 	7.2341123e-06 	0
1.9171171 	0.00015385976 	4.6137867e-08 	5966.0096 	0.00045388031 	0.061582767 	7.7509504e-06 	0
1.9192192 	0.00015304268 	4.501776e-08 	6025.6852 	0.00044372997 	0.061554263 	8.0523068e-06 	0
1.9213213 	0.00015159887 	4.2967261e-08 	6135.3397 	0.00043364388 	0.061515156 	8.2913034e-06 	0
1.9234234 	0.00015015506 	4.0916761e-08 	6244.9942 	0.00042355779 	0.06147605 	8.5302999e-06 	0
1.9255255 	0.00014871125 	3.8866262e-08 	6354.6487 	0.00041347169 	0.061436943 	8.7692965e-06 	0
1.9276276 	0.00014726745 	3.6815763e-08 	6464.3032 	0.0004033856 	0.061397836 	9.0082931e-06 	0
1.9297297 	0.00014582364 	3.4765264e-08 	6573.9577 	0.0003932995 	0.061358729 	9.2472896e-06 	0
1.9318318 	0.00014437983 	3.2714764e-08 	6683.6122 	0.00038321341 	0.061319622 	9.4862862e-06 	0
1.9339339 	0.00014293602 	3.0664265e-08 	6793.2667 	0.00037312732 	0.061280515 	9.7252828e-06 	0
1.936036 	0.00014149222 	2.8613766e-08 	6902.9212 	0.00036304122 	0.061241408 	9.9642793e-06 	0
1.9381381 	0.00014004841 	2.6563267e-08 	7012.5758 	0.00035295513 	0.061202301 	1.0203276e-05 	0
1.9402402 	0.0001386046 	2.4512767e-08 	7122.2303 	0.00034286903 	0.061163195 	1.0442272e-05 	0
1.9423423 	0.00013716079 	2.2462268e-08 	7231.8848 	0.00033278294 	0.061124088 	1.0681269e-05 	0
1.9444444 	0.00013571699 	2.0411769e-08 	7341.5393 	0.00032269685 	0.061084981 	1.0920266e-05 	0
1.9465465 	0.00013427318 	1.8361269e-08 	7451.1938 	0.00031261075 	0.061045874 	1.1159262e-05 	0
1.9486486 	0.00013490056 	1.935466e-08 	7396.7249 	0.00032414009 	0.061048159 	1.1503406e-05 	0
1.9507508 	0.00013622406 	2.1370764e-08 	7287.0587 	0.00034293955 	0.06106363 	1.1902767e-05 	0
1.9528529 	0.00013754757 	2.3386868e-08 	7177.3925 	0.00036173901 	0.061079101 	1.2302127e-05 	0
1.954955 	0.00013887107 	2.5402972e-08 	7067.7263 	0.00038053847 	0.061094572 	1.2701488e-05 	0
1.9570571 	0.00014019457 	2.7419076e-08 	6958.0601 	0.00039933793 	0.061110043 	1.3100849e-05 	0
1.9591592 	0.00014151807 	2.9435181e-08 	6848.3939 	0.00041813738 	0.061125514 	1.350021e-05 	0
1.9612613 	0.00014284158 	3.1451285e-08 	6738.7277 	0.00043693684 	0.061140984 	1.389957e-05 	0
1.9633634 	0.00014416508 	3.3467389e-08 	6629.0615 	0.0004557363 	0.061156455 	1.4298931e-05 	0
1.9654655 	0.00014548858 	3.5483493e-08 	6519.3953 	0.00047453576 	0.061171926 	1.4698292e-05 	0
1.9675676 	0.00014681209 	3.7499597e-08 	6409.7291 	0.00049333522 	0.061187397 	1.5097652e-05 	0
1.9696697 	0.00014813559 	3.9515701e-08 	6300.0629 	0.00051213468 	0.061202868 	1.5497013e-05 	0
1.9717718 	0.00014945909 	4.1531806e-08 	6190.3967 	0.00053093414 	0.061218339 	1.5896374e-05 	0
1.9738739 	0.00015078259 	4.354791e-08 	6080.7305 	0.0005497336 	0.06123381 	1.6295734e-05 	0
1.975976 	0.0001521061 	4.5564014e-08 	5971.0643 	0.00056853306 	0.061249281 	1.6695095e-05 	0
1.9780781 	0.0001514959 	4.4708693e-08 	6017.2007 	0.00058688999 	0.06123077 	1.691768e-05 	0
1.9801802 	0.00015013779 	4.2742779e-08 	6123.5975 	0.00060507575 	0.061199115 	1.7071893e-05 	0
1.9822823 	0.00014877968 	4.0776864e-08 	6229.9943 	0.00062326152 	0.061167461 	1.7226106e-05 	0
1.9843844 	0.00014742158 	3.881095e-08 	6336.3911 	0.00064144729 	0.061135806 	1.7380319e-05 	0
1.9864865 	0.00014606347 	3.6845035e-08 	6442.7879 	0.00065963306 	0.061104152 	1.7534532e-05 	0
1.9885886 	0.00014470537 	3.4879121e-08 	6549.1847 	0.00067781883 	0.061072497 	1.7688744e-05 	0
1.9906907 	0.00014334726 	3.2913206e-08 	6655.5815 	0.00069600459 	0.061040843 	1.7842957e-05 	0
1.9927928 	0.00014198915 	3.0947292e-08 	6761.9783 	0.00071419036 	0.061009188 	1.799717e-05 	0
1.9948949 	0.00014063105 	2.8981377e-08 	6868.3751 	0.00073237613 	0.060977534 	1.8151383e-05 	0
1.996997 	0.00013927294 	2.7015462e-08 	6974.7719 	0.0007505619 	0.06094588 	1.8305596e-05 	0
1.9990991 	0.00013791483 	2.5049548e-08 	7081.1688 	0.00076874767 	0.060914225 	1.8459809e-05 	0
2.0012012 	0.00013655673 	2.3083633e-08 	7187.5656 	0.00078693343 	0.060882571 	1.8614022e-05 	0
2.0033033 	0.00013519862 	2.1117719e-08 	7293.9624 	0.0008051192 	0.060850916 	1.8768234e-05 	0
2.0054054 	0.00013384051 	1.9151804e-08 	7400.3592 	0.00082330497 	0.060819262 	1.8922447e-05 	0
2.0075075 	0.00013315563 	1.8208527e-08 	7450.8058 	0.00082115737 	0.06079676 	1.898127e-05 	0
2.0096096 	0.00013435627 	2.0128271e-08 	7344.397 	0.00076200554 	0.060797054 	1.8767209e-05 	0
2.0117117 	0.00013555691 	2.2048015e-08 	7237.9882 	0.00070285371 	0.060797348 	1.8553148e-05 	0
2.0138138 	0.00013675755 	2.3967759e-08 	7131.5794 	0.00064370187 	0.060797643 	1.8339087e-05 	0
2.0159159 	0.00013795818 	2.5887502e-08 	7025.1706 	0.00058455004 	0.060797937 	1.8125026e-05 	0
2.018018 	0.00013915882 	2.7807246e-08 	6918.7618 	0.00052539821 	0.060798232 	1.7910965e-05 	0
2.0201201 	0.00014035946 	2.972699e-08 	6812.353 	0.00046624638 	0.060798526 	1.7696904e-05 	0
2.0222222 	0.0001415601 	3.1646734e-08 	6705.9443 	0.00040709455 	0.06079882 	1.7482843e-05 	0
2.0243243 	0.00014276073 	3.3566477e-08 	6599.5355 	0.00034794272 	0.060799115 	1.7268782e-05 	0
2.0264264 	0.00014396137 	3.5486221e-08 	6493.1267 	0.00028879089 	0.060799409 	1.7054721e-05 	0
2.0285285 	0.00014516201 	3.7405965e-08 	6386.7179 	0.00022963906 	0.060799703 	1.684066e-05 	0
2.0306306 	0.00014636265 	3.9325708e-08 	6280.3091 	0.00017048723 	0.060799998 	1.6626599e-05 	0
2.0327327 	0.00014756328 	4.1245452e-08 	6173.9003 	0.0001113354 	0.060800292 	1.6412538e-05 	0
2.0348348 	0.00014876392 	4.3165196e-08 	6067.4915 	5.2183571e-05 	0.060800587 	1.6198477e-05 	0
2.0369369 	0.00014996456 	4.508494e-08 	5961.0827 	-6.9682599e-06 	0.060800881 	1.5984416e-05 	0
2.039039 	0.00014910509 	4.3940017e-08 	6023.3828 	-6.474352e-05 	0.060764456 	1.5631594e-05 	0
2.0411411 	0.00014774577 	4.2051485e-08 	6126.6183 	-0.00012218477 	0.060719122 	1.5245103e-05 	0
2.0432432 	0.00014638644 	4.0162954e-08 	6229.8538 	-0.00017962602 	0.060673788 	1.4858612e-05 	0
2.0453453 	0.00014502711 	3.8274423e-08 	6333.0893 	-0.00023706727 	0.060628453 	1.447212e-05 	0
2.0474474 	0.00014366779 	3.6385891e-08 	6436.3248 	-0.00029450852 	0.060583119 	1.4085629e-05 	0
2.0495495 	0.00014230846 	3.449736e-08 	6539.5603 	-0.00035194977 	0.060537785 	1.3699138e-05 	0
2.0516517 	0.00014094914 	3.2608828e-08 	6642.7957 	-0.00040939102 	0.06049245 	1.3312647e-05 	0
2.0537538 	0.00013958981 	3.0720297e-08 	6746.0312 	-0.00046683227 	0.060447116 	1.2926155e-05 	0
2.0558559 	0.00013823048 	2.8831766e-08 	6849.2667 	-0.00052427352 	0.060401782 	1.2539664e-05 	0
2.057958 	0.00013687116 	2.6943234e-08 	6952.5022 	-0.00058171477 	0.060356448 	1.2153173e-05 	0
2.0600601 	0.00013551183 	2.5054703e-08 	7055.7377 	-0.00063915602 	0.060311113 	1.1766682e-05 	0
2.0621622 	0.0001341525 	2.3166171e-08 	7158.9732 	-0.00069659726 	0.060265779 	1.1380191e-05 	0
2.0642643 	0.00013279318 	2.127764e-08 	7262.2087 	-0.00075403851 	0.060220445 	1.0993699e-05 	0
2.0663664 	0.00013143385 	1.9389109e-08 	7365.4441 	-0.00081147976 	0.060175111 	1.0607208e-05 	0
2.0684685 	0.00013007452 	1.7500577e-08 	7468.6796 	-0.00086892101 	0.060129776 	1.0220717e-05 	0
2.0705706 	0.00013106969 	1.9199394e-08 	7385.597 	-0.00083516203 	0.061084391 	1.0394927e-05 	0
2.0726727 	0.00013231924 	2.1279421e-08 	7282.3558 	-0.00079113477 	0.062118873 	1.061587e-05 	0
2.0747748 	0.0001335688 	2.3359447e-08 	7179.1146 	-0.00074710751 	0.063153356 	1.0836813e-05 	0
2.0768769 	0.00013481836 	2.5439474e-08 	7075.8733 	-0.00070308026 	0.064187838 	1.1057756e-05 	0
2.078979 	0.00013606791 	2.75195e-08 	6972.6321 	-0.000659053 	0.065222321 	1.1278699e-05 	0
2.0810811 	0.00013731747 	2.9599527e-08 	6869.3909 	-0.00061502574 	0.066256803 	1.1499642e-05 	0
2.0831832 	0.00013856703 	3.1679553e-08 	6766.1497 	-0.00057099849 	0.067291285 	1.1720585e-05 	0
2.0852853 	0.00013981659 	3.375958e-08 	6662.9085 	-0.00052697123 	0.068325768 	1.1941528e-05 	0
2.0873874 	0.00014106614 	3.5839606e-08 	6559.6673 	-0.00048294397 	0.06936025 	1.2162471e-05 	0
2.0894895 	0.0001423157 	3.7919633e-08 	6456.4261 	-0.00043891671 	0.070394732 	1.2383414e-05 	0
2.0915916 	0.00014356526 	3.9999659e-08 	6353.1848 	-0.00039488946 	0.071429215 	1.2604357e-05 	0
2.0936937 	0.00014481482 	4.2079686e-08 	6249.9436 	-0.0003508622 	0.072463697 	1.28253e-05 	0
2.0957958 	0.00014606437 	4.4159712e-08 	6146.7024 	-0.00030683494 	0.07349818 	1.3046244e-05 	0
2.0978979 	0.00014731393 	4.6239739e-08 	6043.4612 	-0.00026280768 	0.074532662 	1.3267187e-05 	0
2.1 	0.00014856349 	4.8319765e-08 	5940.22 	-0.00021878043 	0.075567144 	1.348813e-05 	0
