# Region            : all region0
# Cells             : 3000
# Volume            : 1.395979868100e-03
# Time              	min(p)	min(k)	min(omega)	min(nut)	min(epsilon)	min(nuTilda)
1                   	2.292246664783e-03	1.170180193994e-04	1.288918743792e-06	5.743676693097e-05
2                   	1.833930522326e-03	2.485000241715e-05	1.963729054107e-09	3.804531832111e-05
3                   	1.937325124355e-03	3.920250459693e-06	3.096319559747e-10	1.115425293141e-06
4                   	1.710208571008e-03	1.525069684776e-06	6.181473586015e-10	8.115095641294e-07
5                   	1.336439983616e-03	6.223451540494e-06	1.995280234555e-08	9.974685031846e-07
6                   	1.200075435410e-03	1.465097272881e-06	1.894270293977e-10	1.461917732309e-05
7                   	1.148406990068e-03	1.341918640728e-06	5.958251586850e-10	1.056425561960e-06
8                   	1.116053665686e-03	1.614629170085e-06	1.356671398398e-09	1.115342434334e-05
9                   	1.095120183479e-03	1.486765343782e-05	6.284508586338e-08	1.186650194853e-06
10                  	1.079061091402e-03	8.380484787063e-06	6.935465463620e-09	8.949234893781e-06
11                  	1.081976423431e-03	1.701920527104e-05	1.998181103965e-07	7.563689953033e-07
12                  	1.095218968297e-03	1.040104393301e-05	7.701951331550e-09	7.399892782756e-06
13                  	1.124050640925e-03	2.501567740890e-05	3.668003849855e-07	6.205589833548e-07
14                  	1.166230878154e-03	1.525645167845e-05	8.122851009661e-09	6.267267128923e-06
15                  	1.223286300812e-03	2.527519259115e-05	2.810422934996e-07	1.099628136388e-06
16                  	1.297087403918e-03	1.370529639299e-05	7.391782410438e-09	5.414101724447e-06
17                  	1.385626416545e-03	3.295242848415e-05	6.189803128703e-07	1.082530166373e-06
18                  	1.488941832550e-03	2.134514609868e-05	1.377172586361e-08	4.794056997413e-06
19                  	1.605775609440e-03	3.016075195484e-05	5.528410947183e-07	2.736358343166e-06
20                  	1.734963557909e-03	1.519792302923e-05	1.461123903964e-08	4.388530030395e-06
21                  	1.874697378334e-03	2.763137373019e-05	7.459496671849e-07	1.434850884509e-06
22                  	2.024057274651e-03	2.280458566091e-05	2.104505269757e-08	4.189312995089e-06
23                  	2.181792027980e-03	2.526462254417e-05	7.068780922572e-07	4.180035993360e-06
24                  	2.347111765285e-03	1.890648648972e-05	2.224138502450e-08	4.225644683823e-06
25                  	2.518815255296e-03	2.253401953496e-05	6.100532745174e-07	4.311321719124e-06
26                  	2.695791814319e-03	1.961737745086e-05	2.697968409449e-08	4.436957739301e-06
27                  	2.876555266300e-03	2.007213164543e-05	4.793990821466e-07	4.602581658380e-06
28                  	3.059817413933e-03	1.706778752954e-05	2.671171167376e-08	4.752346349594e-06
29                  	3.246730049186e-03	1.795951244467e-05	3.451998401143e-07	4.895387563286e-06
30                  	3.428281446560e-03	1.655276450876e-05	2.774602956636e-08	5.054403922656e-06
31                  	3.605777629014e-03	1.704551921483e-05	3.043399050403e-07	5.231999871034e-06
32                  	3.799204468676e-03	1.457657623784e-05	2.253268620993e-08	5.447839772347e-06
33                  	3.974697973733e-03	1.882418649456e-05	2.470268737032e-07	5.708328690347e-06
34                  	4.122731355437e-03	1.229021976847e-05	1.916091322808e-08	6.029183863820e-06
35                  	4.302385056248e-03	1.759178724245e-05	2.708785710605e-07	6.439792140944e-06
36                  	4.498801204792e-03	1.024080741039e-05	1.573587761134e-08	6.743609696383e-06
37                  	4.640037417956e-03	1.900106958678e-05	2.164343698833e-07	6.795357722038e-06
38                  	4.777630252345e-03	8.567315928730e-06	1.183493190781e-08	6.991533549868e-06
39                  	4.976577458788e-03	1.678963785961e-05	2.933987828633e-07	7.088361650627e-06
40                  	5.158337251825e-03	6.899359260514e-06	8.079770976483e-09	7.846152969221e-06
41                  	5.276538558814e-03	1.648392558985e-05	1.566555682347e-07	7.945314819250e-06
42                  	5.444140945422e-03	5.970673920539e-06	4.980665377231e-09	9.204973172617e-06
43                  	5.664733192122e-03	1.307122277699e-05	1.491148125779e-07	8.632769500505e-06
44                  	5.829179606255e-03	5.129310005506e-06	2.793539411447e-09	1.071796867040e-05
45                  	5.930190585686e-03	1.230590947884e-05	5.251292878021e-08	9.290133005089e-06
46                  	6.167151602212e-03	3.598743263950e-06	1.737412988329e-09	1.041380082593e-05
47                  	6.359157397954e-03	8.272329076072e-06	3.391909139562e-08	9.912675523585e-06
48                  	6.609955844933e-03	2.726492176183e-06	1.295307871085e-09	1.100092280821e-05
49                  	6.765929799134e-03	1.339022603350e-05	9.670718657412e-08	1.028241163337e-05
50                  	7.190276646817e-03	4.540259021499e-06	6.245005031844e-09	1.308919058998e-05
51                  	7.252247643348e-03	9.559922477756e-06	3.868478869849e-07	1.119297648490e-05
52                  	7.582107158465e-03	3.389535801388e-06	1.413682125222e-09	1.669564760633e-05
53                  	7.757211360348e-03	9.279195468741e-06	5.461460705545e-07	1.214994390934e-05
54                  	8.190898482989e-03	2.082187119956e-06	8.309984135563e-10	1.626880393491e-05
55                  	8.150271655086e-03	8.240515760857e-06	3.354467348285e-07	1.554934207051e-05
56                  	8.221310755544e-03	1.920051634930e-06	1.337117030018e-09	1.605335247041e-05
57                  	8.026846707058e-03	8.699960059719e-06	2.599853763757e-07	1.600445498866e-05
58                  	7.778473489516e-03	5.547736065919e-06	2.120831964131e-09	1.596738530772e-05
59                  	7.404464812910e-03	5.795488192069e-05	1.789845781814e-06	1.594041624345e-05
60                  	6.657182208324e-03	5.791392554704e-05	1.786565815503e-06	1.591957498585e-05
61                  	6.211015558276e-03	5.783652292582e-05	1.789330240387e-06	1.588104174757e-05
62                  	5.419387744607e-03	5.777354893630e-05	1.786994256106e-06	1.585007638259e-05
63                  	5.185132945476e-03	5.772996146356e-05	1.788962750852e-06	1.582851246658e-05
64                  	5.126720725657e-03	5.770224554071e-05	1.787299337593e-06	1.581463145872e-05
65                  	5.106420795324e-03	5.768623839185e-05	1.788700970504e-06	1.580642793417e-05
66                  	5.089123198844e-03	5.767868020512e-05	1.787516328401e-06	1.580234255306e-05
67                  	5.078715189429e-03	5.767701791022e-05	1.788514663466e-06	1.580115868241e-05
68                  	5.073384711710e-03	5.767920609767e-05	1.787670600352e-06	1.580188874444e-05
69                  	5.069850579468e-03	5.768366234005e-05	1.788382021989e-06	1.580376758475e-05
70                  	5.065745403294e-03	5.768919940520e-05	1.787780390033e-06	1.580621952638e-05
71                  	5.059692096943e-03	5.769496201879e-05	1.788287501237e-06	1.580882670740e-05
72                  	5.051131478498e-03	5.770037213932e-05	1.787858580917e-06	1.581130342795e-05
73                  	5.039880661731e-03	5.770507807815e-05	1.788220117082e-06	1.581347259360e-05
74                  	5.025494973862e-03	5.770890036227e-05	1.787914305254e-06	1.581524037203e-05
75                  	5.008354596262e-03	5.771179244215e-05	1.788172044757e-06	1.581657849693e-05
76                  	4.988698331169e-03	5.771379447758e-05	1.787954012149e-06	1.581750143831e-05
77                  	4.966661929775e-03	5.771500888174e-05	1.788137780887e-06	1.581805564769e-05
78                  	4.942432511276e-03	5.771557697741e-05	1.787982296553e-06	1.581830696130e-05
79                  	4.916263488352e-03	5.771565155805e-05	1.788113337798e-06	1.581832713495e-05
80                  	4.888447468138e-03	5.771538115704e-05	1.788002462341e-06	1.581818628114e-05
81                  	4.859329140836e-03	5.771489731201e-05	1.788095891152e-06	1.581794667761e-05
82                  	4.829253345482e-03	5.771431012525e-05	1.788016841955e-06	1.581766045937e-05
83                  	4.798483360747e-03	5.771370741502e-05	1.788083441516e-06	1.581736897903e-05
84                  	4.767260440976e-03	5.771315134111e-05	1.788027075948e-06	1.581710132174e-05
85                  	4.736122224290e-03	5.771267850955e-05	1.788074572195e-06	1.581687456189e-05
86                  	4.705373616509e-03	5.771230567358e-05	1.788034362619e-06	1.581669654209e-05
87                  	4.675291209449e-03	5.771203640712e-05	1.788068237291e-06	1.581656872860e-05
88                  	4.646126697810e-03	5.771186403875e-05	1.788039558978e-06	1.581648772675e-05
89                  	4.618106771818e-03	5.771177559732e-05	1.788063714113e-06	1.581644704282e-05
90                  	4.591438315228e-03	5.771175380890e-05	1.788043256580e-06	1.581643822689e-05
91                  	4.566264046345e-03	5.771178086022e-05	1.788060489110e-06	1.581645271088e-05
92                  	4.542839999109e-03	5.771184021100e-05	1.788045886131e-06	1.581648251863e-05
93                  	4.521157561176e-03	5.771191735721e-05	1.788058183215e-06	1.581652067103e-05
94                  	4.501407355382e-03	5.771200082570e-05	1.788047762945e-06	1.581656169251e-05
95                  	4.483740868722e-03	5.771208213882e-05	1.788056533915e-06	1.581660150681e-05
96                  	4.468297963822e-03	5.771215561918e-05	1.788049098908e-06	1.581663746623e-05
97                  	4.455168990746e-03	5.771221800391e-05	1.788055353751e-06	1.581666802314e-05
98                  	4.444414479200e-03	5.771226827824e-05	1.788050054138e-06	1.581669274150e-05
99                  	4.436055131477e-03	5.771230676206e-05	1.788054504615e-06	1.581671176999e-05
100                 	4.430062904529e-03	5.771233480529e-05	1.788050735252e-06	1.581672574788e-05
101                 	4.426359662873e-03	5.771235394243e-05	1.788053898338e-06	1.581673544600e-05
102                 	4.424820415271e-03	5.771236615757e-05	1.788051216731e-06	1.581674180955e-05
103                 	4.425288970384e-03	5.771237336778e-05	1.788053468983e-06	1.581674576822e-05
104                 	4.427555489720e-03	5.771237730443e-05	1.788051553458e-06	1.581674815752e-05
105                 	4.431403141204e-03	5.771237940844e-05	1.788053164669e-06	1.581674965506e-05
106                 	4.436646265410e-03	5.771238078660e-05	1.788051791951e-06	1.581675078018e-05
107                 	4.443070195774e-03	5.771238218722e-05	1.788052945512e-06	1.581675188411e-05
108                 	4.450454787054e-03	5.771238409245e-05	1.788051963098e-06	1.581675319243e-05
109                 	4.458561000682e-03	5.771238679124e-05	1.788052786829e-06	1.581675483502e-05
110                 	4.467145582039e-03	5.771239036123e-05	1.788052085016e-06	1.581675684685e-05
111                 	4.476030867727e-03	5.771239487547e-05	1.788052674496e-06	1.581675924715e-05
112                 	4.485101396539e-03	5.771239999210e-05	1.788052168225e-06	1.581676187766e-05
113                 	4.494330857698e-03	5.771240555252e-05	1.788052596302e-06	1.581676467642e-05
114                 	4.503692983141e-03	5.771241125542e-05	1.788052226642e-06	1.581676749818e-05
115                 	4.512895358994e-03	5.771241696607e-05	1.788052539246e-06	1.581677029809e-05
116                 	4.520951401443e-03	5.771242247498e-05	1.788052268671e-06	1.581677297975e-05
117                 	4.527462564754e-03	5.771242766424e-05	1.788052495716e-06	1.581677549138e-05
118                 	4.533574724550e-03	5.771243246498e-05	1.788052304174e-06	1.581677780970e-05
119                 	4.539287039853e-03	5.771243683044e-05	1.788052460280e-06	1.581677991556e-05
120                 	4.544525462343e-03	5.771244072609e-05	1.788052327454e-06	1.581678179808e-05
121                 	4.549263030120e-03	5.771244413778e-05	1.788052438827e-06	1.581678345506e-05
122                 	4.553483895273e-03	5.771244708897e-05	1.788052342883e-06	1.581678489879e-05
123                 	4.557193152571e-03	5.771244958561e-05	1.788052422290e-06	1.581678613614e-05
124                 	4.560409285470e-03	5.771245167595e-05	1.788052354964e-06	1.581678718931e-05
125                 	4.563143260858e-03	5.771245338785e-05	1.788052409832e-06	1.581678807241e-05
126                 	4.565418538445e-03	5.771245474583e-05	1.788052362694e-06	1.581678879703e-05
127                 	4.567262353251e-03	5.771245581579e-05	1.788052403198e-06	1.581678939230e-05
128                 	4.568704566215e-03	5.771245660465e-05	1.788052366343e-06	1.581678986267e-05
129                 	4.569778124208e-03	5.771245714050e-05	1.788052398687e-06	1.581679022164e-05
130                 	4.570518953782e-03	5.771245751599e-05	1.788052369355e-06	1.581679050466e-05
131                 	4.570962817305e-03	5.771245772001e-05	1.788052393590e-06	1.581679071052e-05
132                 	4.571145023599e-03	5.771245779303e-05	1.788052373153e-06	1.581679085238e-05
133                 	4.571101097310e-03	5.771245776677e-05	1.788052388378e-06	1.581679094643e-05
134                 	4.570865385482e-03	5.771245765031e-05	1.788052377362e-06	1.581679099493e-05
135                 	4.570470601452e-03	5.771245752002e-05	1.788052383658e-06	1.581679103184e-05
136                 	4.569947647094e-03	5.771245732266e-05	1.788052380980e-06	1.581679103324e-05
137                 	4.569325729680e-03	5.771245714261e-05	1.788052380148e-06	1.581679103313e-05
138                 	4.568631528031e-03	5.771245695976e-05	1.788052382295e-06	1.581679102754e-05
139                 	4.567889150669e-03	5.771245675805e-05	1.788052380477e-06	1.581679100828e-05
140                 	4.567120522483e-03	5.771245663267e-05	1.788052379620e-06	1.581679101604e-05
141                 	4.566340445783e-03	5.771245653240e-05	1.788052383203e-06	1.581679102385e-05
142                 	4.565572752613e-03	5.771245648400e-05	1.788052377848e-06	1.581679105140e-05
143                 	4.564826338054e-03	5.771245647460e-05	1.788052383456e-06	1.581679108734e-05
144                 	4.564111984145e-03	5.771245651847e-05	1.788052378752e-06	1.581679114042e-05
145                 	4.563438822245e-03	5.771245660723e-05	1.788052382106e-06	1.581679120862e-05
146                 	4.562813612494e-03	5.771245673667e-05	1.788052379309e-06	1.581679129016e-05
147                 	4.562240965421e-03	5.771245690870e-05	1.788052381291e-06	1.581679138572e-05
148                 	4.561723686615e-03	5.771245711806e-05	1.788052379249e-06	1.581679149332e-05
149                 	4.561263233975e-03	5.771245735876e-05	1.788052380960e-06	1.581679161065e-05
150                 	4.560859181359e-03	5.771245763015e-05	1.788052379079e-06	1.581679173798e-05
151                 	4.560510008361e-03	5.771245789302e-05	1.788052380710e-06	1.581679185587e-05
152                 	4.560214904726e-03	5.771245821973e-05	1.788052379730e-06	1.581679201072e-05
153                 	4.559969195005e-03	5.771245854304e-05	1.788052379176e-06	1.581679214924e-05
154                 	4.559770167025e-03	5.771245885272e-05	1.788052381190e-06	1.581679228005e-05
155                 	4.559615763194e-03	5.771245927158e-05	1.788052378229e-06	1.581679249576e-05
156                 	4.559495823812e-03	5.771245953648e-05	1.788052381023e-06	1.581679258680e-05
157                 	4.559409924465e-03	5.771245968699e-05	1.788052378594e-06	1.581679262992e-05
158                 	4.559356983089e-03	5.771245991570e-05	1.788052380419e-06	1.581679273743e-05
159                 	4.559328645499e-03	5.771246011064e-05	1.788052379542e-06	1.581679282593e-05
160                 	4.559321374914e-03	5.771246035142e-05	1.788052379224e-06	1.581679293005e-05
161                 	4.559331445344e-03	5.771246054898e-05	1.788052380446e-06	1.581679301514e-05
162                 	4.559355464423e-03	5.771246072254e-05	1.788052378608e-06	1.581679308932e-05
163                 	4.559390400910e-03	5.771246085740e-05	1.788052380390e-06	1.581679314822e-05
164                 	4.559433142500e-03	5.771246100912e-05	1.788052379503e-06	1.581679321275e-05
165                 	4.559481143635e-03	5.771246107582e-05	1.788052378060e-06	1.581679324338e-05
166                 	4.559532066913e-03	5.771246115336e-05	1.788052382131e-06	1.581679327818e-05
167                 	4.559584567983e-03	5.771246118217e-05	1.788052376354e-06	1.581679329333e-05
168                 	4.559636786922e-03	5.771246121405e-05	1.788052382431e-06	1.581679330910e-05
169                 	4.559686608606e-03	5.771246120843e-05	1.788052376786e-06	1.581679330811e-05
170                 	4.559734218063e-03	5.771246120471e-05	1.788052381895e-06	1.581679331092e-05
171                 	4.559778140579e-03	5.771246109527e-05	1.788052378044e-06	1.581679325598e-05
172                 	4.559819950978e-03	5.771246112421e-05	1.788052379640e-06	1.581679329452e-05
173                 	4.559854999796e-03	5.771246111118e-05	1.788052380774e-06	1.581679329911e-05
174                 	4.559888603832e-03	5.771246100850e-05	1.788052377977e-06	1.581679324095e-05
175                 	4.559917472539e-03	5.771246089920e-05	1.788052381243e-06	1.581679317785e-05
176                 	4.559937470828e-03	5.771246083647e-05	1.788052379185e-06	1.581679316318e-05
177                 	4.559962882025e-03	5.771246081927e-05	1.788052379830e-06	1.581679317479e-05
178                 	4.559977792899e-03	5.771246078949e-05	1.788052379977e-06	1.581679317614e-05
179                 	4.559991169535e-03	5.771246073186e-05	1.788052379750e-06	1.581679315331e-05
180                 	4.560000334794e-03	5.771246064988e-05	1.788052379120e-06	1.581679311753e-05
181                 	4.560009120768e-03	5.771246054268e-05	1.788052380706e-06	1.581679306037e-05
182                 	4.560014658202e-03	5.771246043552e-05	1.788052378194e-06	1.581679300765e-05
183                 	4.560018179028e-03	5.771246032880e-05	1.788052381695e-06	1.581679295928e-05
184                 	4.560021224979e-03	5.771246022975e-05	1.788052377394e-06	1.581679291877e-05
185                 	4.560021126348e-03	5.771246027827e-05	1.788052381672e-06	1.581679297211e-05
186                 	4.560022945566e-03	5.771246034532e-05	1.788052377644e-06	1.581679301535e-05
187                 	4.560020958399e-03	5.771246037854e-05	1.788052381039e-06	1.581679302492e-05
188                 	4.560017434387e-03	5.771246032898e-05	1.788052378266e-06	1.581679298717e-05
189                 	4.560016620548e-03	5.771246028367e-05	1.788052380717e-06	1.581679296570e-05
190                 	4.560014744498e-03	5.771246022907e-05	1.788052377733e-06	1.581679293664e-05
191                 	4.560012118246e-03	5.771246019555e-05	1.788052382564e-06	1.581679292528e-05
192                 	4.560010778638e-03	5.771246018836e-05	1.788052374990e-06	1.581679292774e-05
193                 	4.560008524029e-03	5.771246023569e-05	1.788052384868e-06	1.581679296630e-05
194                 	4.560007187697e-03	5.771246028890e-05	1.788052374545e-06	1.581679299675e-05
195                 	4.560002623273e-03	5.771246024683e-05	1.788052383587e-06	1.581679295581e-05
196                 	4.560001960225e-03	5.771246024108e-05	1.788052376746e-06	1.581679295187e-05
197                 	4.559999623634e-03	5.771246020704e-05	1.788052381338e-06	1.581679292633e-05
198                 	4.559998976619e-03	5.771246016935e-05	1.788052378953e-06	1.581679290272e-05
199                 	4.560000930877e-03	5.771246031896e-05	1.788052379162e-06	1.581679300670e-05
200                 	4.560000666718e-03	5.771246038801e-05	1.788052380854e-06	1.581679303748e-05
201                 	4.559995727313e-03	5.771246035296e-05	1.788052378159e-06	1.581679299732e-05
202                 	4.559995600866e-03	5.771246036904e-05	1.788052380802e-06	1.581679300955e-05
203                 	4.559995121367e-03	5.771246032710e-05	1.788052378505e-06	1.581679297327e-05
204                 	4.559994316449e-03	5.771246029336e-05	1.788052381064e-06	1.581679295303e-05
